SpectraSuite Data File
++++++++++++++++++++++++++++++++++++
Date: Mon Feb 16 11:35:55 GMT 2015
User: lew507
Dark Spectrum Present: Yes
Reference Spectrum Present: No
Number of Sampled Component Spectra: 1
Spectrometers: JAZA1505
Integration Time (usec): 3000 (JAZA1505)
Spectra Averaged: 3 (JAZA1505)
Boxcar Smoothing: 0 (JAZA1505)
Correct for Electrical Dark: No (JAZA1505)
Strobe/Lamp Enabled: No (JAZA1505)
Correct for Detector Non-linearity: No (JAZA1505)
Correct for Stray Light: No (JAZA1505)
Number of Pixels in Processed Spectrum: 2048
>>>>>Begin Processed Spectral Data<<<<<
339.60	-139.90
339.98	-139.90
340.36	-139.90
340.74	-145.88
341.12	-96.51
341.50	-163.84
341.88	-106.98
342.26	-85.29
342.64	-149.62
343.02	-127.18
343.40	-39.65
343.78	-77.06
344.17	-162.34
344.55	-136.16
344.93	-223.69
345.31	-106.98
345.69	-43.39
346.07	-103.99
346.45	-142.14
346.83	-80.05
347.21	-80.80
347.59	-38.90
347.97	-186.28
348.35	-42.64
348.73	-91.27
349.11	-80.05
349.49	-163.84
349.87	-92.02
350.25	-74.06
350.63	-47.13
351.01	-112.22
351.39	-53.12
351.77	-194.51
352.15	-65.83
352.53	-139.90
352.91	-134.66
353.29	-77.06
353.67	-128.68
354.05	-102.49
354.43	-90.52
354.81	-99.50
355.19	-184.04
355.57	-94.26
355.95	-95.01
356.33	-121.19
356.71	-103.24
357.09	-70.32
357.47	-76.31
357.84	-74.81
358.22	-106.98
358.60	-59.10
358.98	-101.74
359.36	-75.56
359.74	-106.98
360.12	-91.27
360.50	-116.71
360.88	-87.53
361.26	-127.93
361.64	-145.88
362.02	-101.00
362.39	-142.89
362.77	-102.49
363.15	-29.18
363.53	-170.57
363.91	-9.73
364.29	-68.83
364.67	-80.05
365.05	-145.13
365.42	-47.88
365.80	-128.68
366.18	-150.37
366.56	-201.24
366.94	-81.54
367.32	-52.37
367.70	-100.25
368.07	-101.00
368.45	-124.94
368.83	-105.48
369.21	-195.26
369.59	-46.38
369.97	-154.86
370.34	-78.55
370.72	-98.75
371.10	-118.20
371.48	-136.16
371.86	-126.43
372.23	-10.47
372.61	-155.61
372.99	-96.51
373.37	-80.80
373.75	-112.97
374.12	-144.39
374.50	-159.35
374.88	-96.51
375.26	-96.51
375.64	-145.88
376.01	-187.78
376.39	-74.06
376.77	-89.03
377.15	-71.82
377.52	-60.60
377.90	-84.54
378.28	-107.73
378.66	-102.49
379.03	-70.32
379.41	-134.66
379.79	-132.42
380.17	-35.16
380.54	-149.62
380.92	-177.30
381.30	-154.11
381.67	-105.48
382.05	-66.58
382.43	-85.29
382.81	-105.48
383.18	-71.07
383.56	-103.99
383.94	-106.98
384.31	-37.41
384.69	-95.76
385.07	-141.39
385.44	-114.46
385.82	-144.39
386.20	-157.85
386.57	-118.95
386.95	-42.64
387.33	-75.56
387.70	-140.65
388.08	-142.89
388.46	-101.00
388.83	-113.71
389.21	-173.56
389.59	-98.00
389.96	-161.59
390.34	-162.34
390.72	-53.12
391.09	-96.51
391.47	-133.16
391.84	-106.23
392.22	-101.00
392.60	-181.79
392.97	-41.89
393.35	-125.68
393.73	-113.71
394.10	-208.72
394.48	-122.69
394.85	-64.34
395.23	-77.80
395.61	-160.10
395.98	-130.92
396.36	-89.77
396.73	-126.43
397.11	-119.70
397.48	-102.49
397.86	-50.87
398.24	6.73
398.61	-87.53
398.99	-98.00
399.36	-24.69
399.74	-121.94
400.11	-95.76
400.49	-82.29
400.86	-153.36
401.24	-95.01
401.61	-41.89
401.99	-100.25
402.36	-80.80
402.74	2.24
403.11	-121.19
403.49	-186.28
403.86	-160.85
404.24	-91.27
404.61	-118.20
404.99	-174.31
405.36	-157.85
405.74	-62.09
406.11	-171.32
406.49	-77.06
406.86	-160.85
407.24	-29.92
407.61	-50.12
407.99	-136.16
408.36	-103.24
408.74	-80.80
409.11	-136.91
409.49	-118.20
409.86	-102.49
410.24	-97.26
410.61	-78.55
410.98	-172.07
411.36	-128.68
411.73	-72.57
412.11	-104.74
412.48	-68.08
412.86	-130.17
413.23	-140.65
413.60	-190.02
413.98	-140.65
414.35	-136.91
414.73	-172.07
415.10	-126.43
415.47	-83.79
415.85	-65.09
416.22	-131.67
416.60	-38.15
416.97	-118.20
417.34	-142.14
417.72	-92.77
418.09	-150.37
418.46	-112.22
418.84	-140.65
419.21	-38.15
419.58	-134.66
419.96	-107.73
420.33	-126.43
420.70	-44.14
421.08	-26.93
421.45	-132.42
421.82	-61.35
422.20	-47.88
422.57	-132.42
422.94	-119.70
423.32	-105.48
423.69	-181.79
424.06	-98.75
424.44	-88.28
424.81	-98.00
425.18	-56.86
425.56	-130.17
425.93	-77.06
426.30	-152.62
426.67	-79.30
427.05	-138.40
427.42	-106.98
427.79	-160.85
428.17	14.21
428.54	-202.74
428.91	-61.35
429.28	-74.06
429.66	-97.26
430.03	-105.48
430.40	-86.78
430.77	-126.43
431.15	-128.68
431.52	-151.87
431.89	-123.44
432.26	-102.49
432.63	-81.54
433.01	-68.08
433.38	-140.65
433.75	-93.51
434.12	-96.51
434.50	-65.83
434.87	-99.50
435.24	-63.59
435.61	-145.88
435.98	-56.86
436.36	-32.92
436.73	-107.73
437.10	-41.89
437.47	-65.09
437.84	-94.26
438.21	-106.23
438.59	-95.76
438.96	-8.23
439.33	-14.96
439.70	-0.00
440.07	-57.60
440.44	-130.92
440.81	-99.50
441.19	-125.68
441.56	12.72
441.93	-28.43
442.30	-43.39
442.67	-23.94
443.04	-29.18
443.41	-56.11
443.78	-130.17
444.16	-56.86
444.53	-77.06
444.90	50.87
445.27	-25.44
445.64	56.11
446.01	-32.92
446.38	-35.16
446.75	-15.71
447.12	23.19
447.49	-23.94
447.86	106.23
448.24	3.74
448.61	11.22
448.98	87.53
449.35	93.51
449.72	53.12
450.09	21.70
450.46	-1.50
450.83	22.44
451.20	78.55
451.57	151.12
451.94	85.29
452.31	113.71
452.68	83.04
453.05	94.26
453.42	118.20
453.79	204.98
454.16	207.98
454.53	185.53
454.90	216.95
455.27	201.24
455.64	175.81
456.01	260.34
456.38	271.57
456.75	181.04
457.12	234.16
457.49	251.37
457.86	350.87
458.23	444.38
458.60	404.73
458.97	349.37
459.34	413.71
459.71	439.14
460.08	373.31
460.45	453.36
460.82	552.86
461.18	532.66
461.55	637.40
461.92	626.92
462.29	699.49
462.66	672.56
463.03	786.27
463.40	831.91
463.77	878.29
464.14	884.27
464.51	918.69
464.88	1160.33
465.25	1090.01
465.61	1174.54
465.98	1212.70
466.35	1256.84
466.72	1398.23
467.09	1361.57
467.46	1483.51
467.83	1594.24
468.20	1686.25
468.56	1795.48
468.93	1838.87
469.30	2026.65
469.67	2046.85
470.04	2162.80
470.41	2294.47
470.77	2364.05
471.14	2418.66
471.51	2567.54
471.88	2756.81
472.25	2972.27
472.62	3031.37
472.98	3294.70
473.35	3458.54
473.72	3631.36
474.09	3872.25
474.46	3981.48
474.82	4209.65
475.19	4370.50
475.56	4639.82
475.93	4845.55
476.29	5131.33
476.66	5471.72
477.03	5681.94
477.40	5872.71
477.77	6178.69
478.13	6532.55
478.50	6929.80
478.87	7247.00
479.24	7501.36
479.60	7930.78
479.97	8396.86
480.34	8679.65
480.71	9061.93
481.07	9426.27
481.44	9994.84
481.81	10473.63
482.17	11007.04
482.54	11412.52
482.91	11959.39
483.28	12457.63
483.64	12961.87
484.01	13765.34
484.38	14234.41
484.74	14838.14
485.11	15290.00
485.48	16109.19
485.84	16745.09
486.21	17321.14
486.58	17913.65
486.94	18824.11
487.31	19221.36
487.68	20223.08
488.04	20576.94
488.41	21402.86
488.78	22112.08
489.14	22943.23
489.51	23407.07
489.87	24554.68
490.24	25305.79
490.61	25762.89
490.97	26933.69
491.34	27565.10
491.71	28173.32
492.07	29017.19
492.44	29792.99
492.80	30586.74
493.17	31144.84
493.54	32150.30
493.90	32957.52
494.27	33628.58
494.63	33698.16
495.00	34607.12
495.37	35410.60
495.73	35993.38
496.10	36692.12
496.46	37020.54
496.83	37800.08
497.19	38193.59
497.56	38689.59
497.92	38860.91
498.29	39766.88
498.65	39671.12
499.02	39912.01
499.39	40381.83
499.75	40435.69
500.12	41294.53
500.48	40808.26
500.85	41138.17
501.21	41322.21
501.58	41801.75
501.94	41423.21
502.31	41810.73
502.67	41521.96
503.04	41247.40
503.40	41622.95
503.77	41494.28
504.13	41175.58
504.50	41143.41
504.86	40763.37
505.23	40592.80
505.59	40469.36
505.95	40109.51
506.32	39647.93
506.68	39213.27
507.05	38825.75
507.41	38872.88
507.78	38340.22
508.14	37865.17
508.51	37214.30
508.87	36992.11
509.23	36222.30
509.60	35874.43
509.96	35005.86
510.33	34735.79
510.69	33968.98
511.05	33519.36
511.42	33074.23
511.78	32650.79
512.15	31987.21
512.51	31363.29
512.87	30762.55
513.24	30306.95
513.60	29636.63
513.97	28971.56
514.33	28650.62
514.69	28167.33
515.06	27281.56
515.42	26873.84
515.78	26449.66
516.15	25962.63
516.51	25411.27
516.87	24817.27
517.24	24273.39
517.60	23669.66
517.96	23232.01
518.33	22756.95
518.69	22307.34
519.05	21975.17
519.42	21315.33
519.78	20832.05
520.14	20535.80
520.51	19903.64
520.87	19656.76
521.23	19149.54
521.59	18864.50
521.96	18299.68
522.32	17910.66
522.68	17324.13
523.05	17210.42
523.41	16463.80
523.77	16243.85
524.13	15952.83
524.50	15258.58
524.86	15217.44
525.22	14768.57
525.58	14541.89
525.95	13977.81
526.31	13742.90
526.67	13362.86
527.03	13006.00
527.39	12537.68
527.76	12231.70
528.12	11993.80
528.48	11638.45
528.84	11358.65
529.20	10815.52
529.57	10684.60
529.93	10231.99
530.29	10032.99
530.65	9716.54
531.01	9579.63
531.38	9149.46
531.74	8956.45
532.10	8580.90
532.46	8539.75
532.82	8083.40
533.18	7786.40
533.55	7555.98
533.91	7429.54
534.27	7123.56
534.63	6950.75
534.99	6801.87
535.35	6400.88
535.71	6454.00
536.08	6120.34
536.44	5912.36
536.80	5772.47
537.16	5552.52
537.52	5372.97
537.88	5135.82
538.24	4984.70
538.60	4926.35
538.96	4867.99
539.32	4562.76
539.69	4400.42
540.05	4344.31
540.41	4140.82
540.77	4036.84
541.13	4072.00
541.49	3858.04
541.85	3650.06
542.21	3596.94
542.57	3454.05
542.93	3354.55
543.29	3299.94
543.65	3195.95
544.01	3044.83
544.37	2969.27
544.73	2938.60
545.09	2766.53
545.45	2801.70
545.81	2744.09
546.17	2577.26
546.53	2508.43
546.89	2482.25
547.25	2480.01
547.61	2340.11
547.97	2385.00
548.33	2319.16
548.69	2169.54
549.05	2162.80
549.41	2156.07
549.77	2053.58
550.13	2102.21
550.49	2019.17
550.85	1891.24
551.21	1830.64
551.57	1790.99
551.93	1796.23
552.29	1772.29
552.65	1652.59
553.01	1599.47
553.37	1579.27
553.73	1488.00
554.09	1547.85
554.44	1488.00
554.80	1384.76
555.16	1456.58
555.52	1395.99
555.88	1348.85
556.24	1257.58
556.60	1292.75
556.96	1223.92
557.32	1200.73
557.68	1143.87
558.03	1182.77
558.39	1163.32
558.75	1009.96
559.11	1081.03
559.47	1050.36
559.83	975.54
560.19	923.92
560.54	1018.93
560.90	981.53
561.26	944.12
561.62	972.55
561.98	846.87
562.34	803.48
562.69	886.52
563.05	773.55
563.41	833.40
563.77	753.35
564.13	754.10
564.48	755.60
564.84	730.16
565.20	672.56
565.56	674.80
565.92	649.37
566.27	529.67
566.63	608.97
566.99	605.97
567.35	602.23
567.70	591.01
568.06	528.92
568.42	493.01
568.78	499.74
569.13	580.54
569.49	469.82
569.85	504.23
570.21	362.09
570.56	363.58
570.92	388.27
571.28	402.49
571.63	297.00
571.99	323.19
572.35	294.76
572.71	337.40
573.06	347.13
573.42	273.06
573.78	299.25
574.13	308.97
574.49	344.88
574.85	231.17
575.20	302.24
575.56	267.83
575.92	253.61
576.27	206.48
576.63	249.87
576.99	264.09
577.34	226.68
577.70	228.92
578.06	180.30
578.41	126.43
578.77	199.00
579.13	160.10
579.48	175.06
579.84	175.06
580.19	190.02
580.55	164.59
580.91	95.01
581.26	196.75
581.62	60.60
581.97	50.87
582.33	121.94
582.69	102.49
583.04	72.57
583.40	81.54
583.75	119.70
584.11	127.93
584.46	62.09
584.82	74.81
585.17	75.56
585.53	77.80
585.89	9.73
586.24	27.68
586.60	152.62
586.95	-54.61
587.31	15.71
587.66	51.62
588.02	75.56
588.37	65.09
588.73	59.85
589.08	-6.73
589.44	13.47
589.79	58.35
590.15	-54.61
590.50	-22.44
590.86	-8.98
591.21	118.95
591.57	0.00
591.92	-64.34
592.28	7.48
592.63	86.78
592.99	16.46
593.34	-91.27
593.69	-42.64
594.05	4.49
594.40	-26.93
594.76	-38.15
595.11	-6.73
595.47	18.70
595.82	-88.28
596.18	-47.88
596.53	-17.21
596.88	-68.08
597.24	-11.22
597.59	-60.60
597.95	-81.54
598.30	-49.38
598.65	-65.09
599.01	-131.67
599.36	-50.12
599.71	-93.51
600.07	-85.29
600.42	-67.33
600.78	-115.21
601.13	-86.03
601.48	-52.37
601.84	16.46
602.19	-11.22
602.54	-125.68
602.90	-92.77
603.25	-88.28
603.60	-44.89
603.96	-106.23
604.31	-103.24
604.66	-31.42
605.02	-61.35
605.37	-71.82
605.72	-95.01
606.08	-45.64
606.43	-40.40
606.78	-9.73
607.13	-24.69
607.49	-62.09
607.84	-133.16
608.19	-91.27
608.55	-208.72
608.90	-104.74
609.25	-181.79
609.60	-98.75
609.96	-59.85
610.31	-125.68
610.66	-33.67
611.01	-59.10
611.37	-29.92
611.72	-81.54
612.07	-153.36
612.42	-60.60
612.77	-94.26
613.13	-62.84
613.48	-89.77
613.83	-115.96
614.18	-148.88
614.53	-86.78
614.89	-121.94
615.24	-183.29
615.59	-14.21
615.94	-120.45
616.29	-47.13
616.65	-56.86
617.00	-123.44
617.35	-120.45
617.70	-57.60
618.05	-89.03
618.40	-134.66
618.75	-68.08
619.11	-33.67
619.46	-72.57
619.81	-84.54
620.16	-53.86
620.51	-71.82
620.86	-107.73
621.21	-107.73
621.56	-127.93
621.92	-44.14
622.27	-108.48
622.62	-127.93
622.97	-106.98
623.32	-107.73
623.67	-70.32
624.02	-175.81
624.37	-143.64
624.72	-116.71
625.07	-139.90
625.42	-83.04
625.77	-175.81
626.12	-89.03
626.47	-72.57
626.82	-163.84
627.18	-67.33
627.53	-83.04
627.88	-104.74
628.23	-139.90
628.58	-190.02
628.93	-87.53
629.28	-42.64
629.63	-150.37
629.98	-71.07
630.33	-95.01
630.68	-68.83
631.03	-115.21
631.38	-105.48
631.73	-98.00
632.08	-115.21
632.43	-38.15
632.78	-160.10
633.12	-67.33
633.47	-75.56
633.82	-166.83
634.17	-92.77
634.52	-77.80
634.87	-100.25
635.22	-56.86
635.57	-87.53
635.92	-117.45
636.27	-71.07
636.62	-120.45
636.97	-95.01
637.32	-88.28
637.67	-179.55
638.01	-133.91
638.36	-112.22
638.71	-106.98
639.06	-182.54
639.41	-151.12
639.76	-206.48
640.11	-85.29
640.46	-142.89
640.81	-73.32
641.15	-77.80
641.50	-43.39
641.85	-83.79
642.20	-110.72
642.55	-77.06
642.90	-95.76
643.24	-111.47
643.59	-201.24
643.94	-79.30
644.29	-115.21
644.64	-118.20
644.99	-101.00
645.33	-112.22
645.68	-95.76
646.03	-112.97
646.38	-73.32
646.72	-62.84
647.07	-37.41
647.42	-77.06
647.77	-90.52
648.12	-141.39
648.46	-139.90
648.81	-139.90
649.16	-96.51
649.51	-111.47
649.85	-101.00
650.20	-88.28
650.55	-67.33
650.90	-140.65
651.24	-35.16
651.59	-163.84
651.94	-117.45
652.28	-173.56
652.63	-112.22
652.98	-139.90
653.33	-142.14
653.67	-69.57
654.02	-149.62
654.37	-29.18
654.71	-121.94
655.06	-127.93
655.41	-106.98
655.75	-133.16
656.10	-172.07
656.45	-96.51
656.79	-151.12
657.14	-142.14
657.49	-90.52
657.83	-29.92
658.18	-106.23
658.53	-198.25
658.87	-183.29
659.22	-124.19
659.56	-122.69
659.91	-90.52
660.26	-125.68
660.60	-111.47
660.95	-89.77
661.29	-86.78
661.64	-132.42
661.99	-118.95
662.33	-11.97
662.68	-115.96
663.02	-145.88
663.37	-115.96
663.72	-68.83
664.06	-47.13
664.41	-48.63
664.75	-101.74
665.10	-111.47
665.44	-112.97
665.79	-237.90
666.13	-115.21
666.48	-155.61
666.82	-130.92
667.17	-63.59
667.51	-145.88
667.86	-80.05
668.20	-145.13
668.55	-182.54
668.89	-89.03
669.24	-109.23
669.58	-144.39
669.93	-115.21
670.27	-161.59
670.62	-165.33
670.96	-139.90
671.31	-197.50
671.65	-132.42
672.00	-154.86
672.34	-132.42
672.69	-112.97
673.03	-57.60
673.38	-110.72
673.72	-80.80
674.06	-33.67
674.41	-91.27
674.75	-106.23
675.10	-127.18
675.44	-14.21
675.78	-73.32
676.13	-139.90
676.47	-127.18
676.82	-151.12
677.16	-58.35
677.50	-125.68
677.85	-99.50
678.19	-115.21
678.54	-139.90
678.88	-179.55
679.22	-192.27
679.57	-41.15
679.91	-64.34
680.25	-144.39
680.60	-146.63
680.94	-159.35
681.28	-103.24
681.63	-96.51
681.97	-174.31
682.31	-70.32
682.66	-99.50
683.00	-106.23
683.34	-101.00
683.69	-66.58
684.03	-118.95
684.37	-162.34
684.71	-141.39
685.06	-150.37
685.40	-175.06
685.74	-109.97
686.09	-118.20
686.43	-138.40
686.77	-64.34
687.11	-110.72
687.46	-80.80
687.80	-100.25
688.14	-116.71
688.48	-98.75
688.82	-101.00
689.17	-144.39
689.51	-124.19
689.85	-77.80
690.19	-116.71
690.54	-102.49
690.88	-101.00
691.22	-128.68
691.56	-107.73
691.90	-147.38
692.25	-138.40
692.59	-86.03
692.93	-137.65
693.27	-121.19
693.61	-147.38
693.95	-125.68
694.30	-145.88
694.64	-166.08
694.98	-68.83
695.32	-101.00
695.66	-133.16
696.00	-144.39
696.34	-134.66
696.68	-144.39
697.03	-116.71
697.37	-114.46
697.71	-49.38
698.05	-86.78
698.39	-230.42
698.73	-141.39
699.07	-107.73
699.41	-77.80
699.75	-194.51
700.09	-145.13
700.44	-142.89
700.78	-136.91
701.12	-139.15
701.46	-124.19
701.80	-199.75
702.14	-131.67
702.48	-139.90
702.82	-48.63
703.16	-180.30
703.50	-89.77
703.84	-138.40
704.18	-152.62
704.52	-190.02
704.86	-106.23
705.20	-142.14
705.54	-56.86
705.88	-50.87
706.22	-95.76
706.56	-184.04
706.90	-65.83
707.24	-121.94
707.58	-112.22
707.92	-36.66
708.26	-91.27
708.60	-131.67
708.94	-68.83
709.28	-103.99
709.62	-78.55
709.96	-112.22
710.30	-122.69
710.63	-89.03
710.97	-87.53
711.31	-110.72
711.65	-96.51
711.99	-148.13
712.33	-69.57
712.67	-156.36
713.01	-181.79
713.35	-131.67
713.69	-113.71
714.03	-120.45
714.36	-94.26
714.70	-71.82
715.04	-89.03
715.38	-117.45
715.72	-89.03
716.06	-73.32
716.40	-91.27
716.73	-121.19
717.07	-168.33
717.41	-90.52
717.75	-224.43
718.09	-144.39
718.43	-29.92
718.76	-101.00
719.10	-101.00
719.44	-113.71
719.78	-145.13
720.12	-171.32
720.45	-147.38
720.79	-87.53
721.13	-86.78
721.47	-142.14
721.80	-92.77
722.14	-151.87
722.48	-95.76
722.82	-152.62
723.16	-149.62
723.49	-98.75
723.83	-100.25
724.17	-104.74
724.50	-127.93
724.84	-159.35
725.18	-144.39
725.52	-98.00
725.85	-74.06
726.19	-129.42
726.53	-74.81
726.87	-112.22
727.20	-118.20
727.54	-101.74
727.88	-56.11
728.21	-120.45
728.55	-139.90
728.89	-157.10
729.22	-111.47
729.56	-176.56
729.90	-91.27
730.23	-157.85
730.57	-74.06
730.91	-122.69
731.24	-154.86
731.58	-166.08
731.91	-106.98
732.25	-99.50
732.59	-28.43
732.92	-156.36
733.26	-123.44
733.60	-180.30
733.93	-86.03
734.27	-124.94
734.60	-111.47
734.94	-184.78
735.27	-215.46
735.61	-95.76
735.95	-122.69
736.28	-130.17
736.62	-148.88
736.95	-113.71
737.29	-94.26
737.62	-86.03
737.96	-135.41
738.29	-62.84
738.63	-51.62
738.97	-104.74
739.30	-28.43
739.64	-118.20
739.97	-159.35
740.31	-185.53
740.64	-26.18
740.98	-67.33
741.31	-100.25
741.65	-117.45
741.98	-136.16
742.32	-136.91
742.65	-53.12
742.98	-125.68
743.32	-114.46
743.65	-113.71
743.99	-51.62
744.32	-83.04
744.66	-92.02
744.99	-161.59
745.33	-103.99
745.66	-136.16
745.99	-126.43
746.33	-105.48
746.66	-106.23
747.00	-74.81
747.33	-80.80
747.67	-100.25
748.00	-148.88
748.33	-129.42
748.67	-68.08
749.00	-151.87
749.33	-35.16
749.67	-66.58
750.00	-50.12
750.34	-166.83
750.67	-107.73
751.00	-131.67
751.34	-131.67
751.67	-126.43
752.00	-118.95
752.34	-101.74
752.67	-81.54
753.00	-122.69
753.34	-151.87
753.67	-115.96
754.00	-50.87
754.34	-181.79
754.67	-144.39
755.00	-74.06
755.33	-84.54
755.67	-172.81
756.00	-150.37
756.33	-124.19
756.67	-145.88
757.00	-139.15
757.33	-56.86
757.66	-87.53
758.00	-187.03
758.33	-62.09
758.66	-98.00
758.99	-131.67
759.33	-165.33
759.66	-151.12
759.99	-102.49
760.32	-163.09
760.65	-120.45
760.99	-151.87
761.32	-161.59
761.65	-72.57
761.98	-182.54
762.31	-142.14
762.65	-223.69
762.98	-53.86
763.31	-119.70
763.64	-151.87
763.97	-143.64
764.30	-60.60
764.64	-110.72
764.97	-74.06
765.30	7.48
765.63	-101.00
765.96	-118.20
766.29	-131.67
766.62	-65.09
766.95	-56.86
767.29	-62.84
767.62	-59.85
767.95	-101.74
768.28	-163.84
768.61	-85.29
768.94	-82.29
769.27	-132.42
769.60	-193.76
769.93	-162.34
770.26	-182.54
770.59	-106.23
770.92	-128.68
771.25	-96.51
771.59	-118.20
771.92	-94.26
772.25	-103.24
772.58	-138.40
772.91	-133.91
773.24	-163.09
773.57	-154.11
773.90	-187.03
774.23	-121.94
774.56	-99.50
774.89	-126.43
775.22	-173.56
775.55	-112.97
775.88	-166.08
776.21	-101.00
776.54	-152.62
776.87	-99.50
777.20	-112.22
777.53	-65.83
777.85	-118.95
778.18	-163.84
778.51	-66.58
778.84	-101.00
779.17	-107.73
779.50	-214.71
779.83	-182.54
780.16	-167.58
780.49	-37.41
780.82	-152.62
781.15	-124.94
781.48	-218.45
781.81	-130.92
782.13	-104.74
782.46	-121.94
782.79	-106.98
783.12	-104.74
783.45	-125.68
783.78	-114.46
784.11	-71.82
784.43	-86.03
784.76	-123.44
785.09	-174.31
785.42	-155.61
785.75	-124.94
786.08	-114.46
786.40	-129.42
786.73	-68.83
787.06	-140.65
787.39	-121.94
787.72	-94.26
788.04	-123.44
788.37	-80.80
788.70	-125.68
789.03	-119.70
789.36	-159.35
789.68	-56.86
790.01	-193.76
790.34	-50.87
790.67	-65.09
790.99	-69.57
791.32	-136.16
791.65	-129.42
791.98	-75.56
792.30	-70.32
792.63	-95.76
792.96	-193.01
793.29	-123.44
793.61	-177.30
793.94	-113.71
794.27	-163.84
794.59	-133.16
794.92	-125.68
795.25	-129.42
795.57	-109.97
795.90	-175.06
796.23	-103.99
796.55	-63.59
796.88	-126.43
797.21	-181.04
797.53	-137.65
797.86	-127.93
798.19	-133.16
798.51	-178.05
798.84	-117.45
799.17	-141.39
799.49	-51.62
799.82	-98.00
800.14	-115.96
800.47	-165.33
800.80	-144.39
801.12	-100.25
801.45	-132.42
801.77	-148.88
802.10	-108.48
802.43	-130.17
802.75	-192.27
803.08	-126.43
803.40	-119.70
803.73	-127.93
804.05	-35.91
804.38	-205.73
804.70	-111.47
805.03	-123.44
805.35	-115.96
805.68	-157.10
806.01	-106.23
806.33	-126.43
806.66	-83.79
806.98	-187.78
807.31	-173.56
807.63	-129.42
807.96	-138.40
808.28	-132.42
808.60	-133.91
808.93	-74.06
809.25	-80.80
809.58	-102.49
809.90	-160.10
810.23	-165.33
810.55	-114.46
810.88	-63.59
811.20	-42.64
811.53	-68.83
811.85	-112.97
812.17	-60.60
812.50	-84.54
812.82	-111.47
813.15	-10.47
813.47	-5.98
813.79	-114.46
814.12	-79.30
814.44	-80.80
814.77	-95.01
815.09	-101.00
815.41	-156.36
815.74	-100.25
816.06	-132.42
816.38	-142.89
816.71	-186.28
817.03	-182.54
817.35	-154.11
817.68	-74.81
818.00	-118.95
818.32	-67.33
818.65	-71.07
818.97	-136.16
819.29	-74.06
819.62	-129.42
819.94	-126.43
820.26	-29.18
820.58	-142.89
820.91	-128.68
821.23	-10.47
821.55	-148.13
821.88	-108.48
822.20	-153.36
822.52	-97.26
822.84	-129.42
823.17	-178.80
823.49	-165.33
823.81	-158.60
824.13	-63.59
824.46	-29.18
824.78	-92.02
825.10	-92.77
825.42	-57.60
825.74	-122.69
826.07	-121.94
826.39	-80.80
826.71	-80.80
827.03	-127.18
827.35	-129.42
827.67	-115.96
828.00	-157.85
828.32	-110.72
828.64	-96.51
828.96	-115.21
829.28	-117.45
829.60	-134.66
829.93	-95.01
830.25	-99.50
830.57	-163.09
830.89	-121.19
831.21	-99.50
831.53	-97.26
831.85	-83.04
832.17	-154.86
832.49	-160.85
832.82	-171.32
833.14	-111.47
833.46	-143.64
833.78	-131.67
834.10	-120.45
834.42	-163.09
834.74	-160.10
835.06	-116.71
835.38	-142.14
835.70	-107.73
836.02	-68.83
836.34	-96.51
836.66	-119.70
836.98	-17.21
837.30	-107.73
837.62	-133.91
837.94	-86.03
838.26	-136.16
838.58	-15.71
838.90	-143.64
839.22	-148.13
839.54	-152.62
839.86	-82.29
840.18	-80.05
840.50	-85.29
840.82	-47.88
841.14	-57.60
841.46	-36.66
841.78	-94.26
842.10	-186.28
842.42	-113.71
842.74	-92.77
843.06	-231.92
843.38	-160.85
843.69	-68.08
844.01	-166.83
844.33	-131.67
844.65	-135.41
844.97	-53.86
845.29	-134.66
845.61	-213.96
845.93	-78.55
846.25	-143.64
846.56	-92.02
846.88	-123.44
847.20	-98.00
847.52	-112.97
847.84	-69.57
848.16	-77.06
848.47	-178.05
848.79	-80.80
849.11	-166.08
849.43	-97.26
849.75	-175.81
850.07	-77.80
850.38	-130.17
850.70	-108.48
851.02	-198.25
851.34	-160.85
851.66	-152.62
851.97	-35.16
852.29	-143.64
852.61	-103.99
852.93	-136.91
853.24	-116.71
853.56	-170.57
853.88	-135.41
854.20	-158.60
854.51	-169.07
854.83	-184.78
855.15	-12.72
855.46	-56.86
855.78	-66.58
856.10	-139.15
856.42	-119.70
856.73	-139.90
857.05	-110.72
857.37	-66.58
857.68	-140.65
858.00	-124.19
858.32	-77.80
858.63	-92.77
858.95	-112.22
859.27	-142.89
859.58	-109.22
859.90	-123.44
860.22	-141.39
860.53	-60.60
860.85	-199.75
861.16	-130.92
861.48	-77.06
861.80	-90.52
862.11	-83.79
862.43	-112.97
862.74	-89.03
863.06	-222.94
863.38	-115.21
863.69	-152.62
864.01	-133.91
864.32	-133.16
864.64	-109.22
864.95	-172.81
865.27	-89.03
865.59	-84.54
865.90	-98.75
866.22	-115.96
866.53	-76.31
866.85	-190.77
867.16	-94.26
867.48	-89.03
867.79	-20.95
868.11	-121.94
868.42	-118.95
868.74	-127.93
869.05	-109.23
869.37	-106.23
869.68	-187.03
870.00	-163.09
870.31	-177.30
870.63	-112.97
870.94	-130.92
871.25	-161.59
871.57	-79.30
871.88	-98.00
872.20	-85.29
872.51	-94.26
872.83	-60.60
873.14	-151.12
873.45	-181.04
873.77	-83.04
874.08	-178.05
874.40	-131.67
874.71	-115.21
875.02	-175.06
875.34	-137.65
875.65	-127.93
875.96	-62.84
876.28	-112.97
876.59	-85.29
876.91	-91.27
877.22	-197.50
877.53	-121.19
877.85	-184.04
878.16	-10.47
878.47	-125.68
878.79	-108.48
879.10	-163.84
879.41	-101.74
879.72	-186.28
880.04	-136.16
880.35	-128.68
880.66	-91.27
880.98	-90.52
881.29	-52.37
881.60	-130.92
881.91	-163.84
882.23	-147.38
882.54	-127.93
882.85	-124.94
883.16	-184.78
883.48	-135.41
883.79	-137.65
884.10	-76.31
884.41	-117.45
884.73	-68.83
885.04	-142.89
885.35	-151.87
885.66	-88.28
885.97	-95.76
886.29	-151.87
886.60	-115.96
886.91	-91.27
887.22	-188.53
887.53	-92.02
887.84	-68.83
888.16	-136.16
888.47	-109.97
888.78	-98.75
889.09	-163.84
889.40	-74.06
889.71	-126.43
890.02	-54.61
890.34	-164.59
890.65	-117.45
890.96	-98.00
891.27	-137.65
891.58	-71.07
891.89	-57.60
892.20	-148.88
892.51	-166.83
892.82	-112.97
893.13	-135.41
893.44	-142.14
893.75	-121.94
894.07	-198.25
894.38	-156.36
894.69	-203.49
895.00	-124.19
895.31	-112.97
895.62	-104.74
895.93	-112.22
896.24	-124.19
896.55	-104.74
896.86	-92.77
897.17	-93.51
897.48	-89.77
897.79	-127.93
898.10	-112.97
898.41	-165.33
898.72	-179.55
899.03	-184.78
899.34	-79.30
899.65	-191.52
899.95	-106.98
900.26	-145.13
900.57	-246.88
900.88	-124.94
901.19	-124.19
901.50	-155.61
901.81	-157.85
902.12	-133.16
902.43	-179.55
902.74	-138.40
903.05	-35.16
903.36	-151.87
903.66	-136.16
903.97	-133.16
904.28	-143.64
904.59	-148.13
904.90	-112.22
905.21	-109.22
905.52	-62.09
905.82	-138.40
906.13	-123.44
906.44	-115.21
906.75	-103.99
907.06	-149.62
907.37	-142.14
907.67	-165.33
907.98	-80.80
908.29	-199.00
908.60	-135.41
908.91	-172.81
909.21	-134.66
909.52	-81.54
909.83	-170.57
910.14	-145.88
910.44	-115.21
910.75	-179.55
911.06	-112.22
911.37	-97.26
911.67	-177.30
911.98	-95.76
912.29	-105.48
912.60	-168.33
912.90	-156.36
913.21	-152.62
913.52	-249.12
913.82	-157.85
914.13	-133.91
914.44	-62.09
914.75	-106.98
915.05	-132.42
915.36	-124.19
915.67	-94.26
915.97	-83.79
916.28	-72.57
916.59	-59.85
916.89	-131.67
917.20	-131.67
917.50	-58.35
917.81	-127.93
918.12	-98.75
918.42	-181.79
918.73	-109.22
919.04	-223.69
919.34	-115.96
919.65	-175.06
919.95	-93.51
920.26	-144.39
920.56	-139.15
920.87	-112.97
921.18	-129.42
921.48	-106.23
921.79	-150.37
922.09	-102.49
922.40	-96.51
922.70	-156.36
923.01	-131.67
923.31	-135.41
923.62	-175.81
923.92	-133.16
924.23	-80.05
924.53	-120.45
924.84	-143.64
925.14	-126.43
925.45	-127.93
925.75	-90.52
926.06	-114.46
926.36	-105.48
926.67	-140.65
926.97	-47.88
927.28	-140.65
927.58	-121.19
927.89	-166.08
928.19	-87.53
928.49	-183.29
928.80	-103.99
929.10	-120.45
929.41	-140.65
929.71	-126.43
930.02	-122.69
930.32	-60.60
930.62	-94.26
930.93	-120.45
931.23	-77.80
931.53	-137.65
931.84	-65.09
932.14	-153.36
932.45	-106.98
932.75	-114.46
933.05	-130.92
933.36	-108.48
933.66	-110.72
933.96	-137.65
934.27	-109.22
934.57	-158.60
934.87	-94.26
935.18	-50.87
935.48	-188.53
935.78	-187.03
936.08	-150.37
936.39	-216.21
936.69	-118.20
936.99	-79.30
937.30	-193.76
937.60	-126.43
937.90	-82.29
938.20	-105.48
938.51	-9.73
938.81	-65.09
939.11	-146.63
939.41	-106.23
939.72	-77.80
940.02	-153.36
940.32	-174.31
940.62	-153.36
940.92	-74.81
941.23	-171.32
941.53	-117.45
941.83	-113.71
942.13	-65.09
942.43	-137.65
942.73	-109.97
943.04	-165.33
943.34	-157.10
943.64	-142.89
943.94	-137.65
944.24	-109.22
944.54	-116.71
944.84	-114.46
945.15	-106.98
945.45	-133.91
945.75	-110.72
946.05	-104.74
946.35	-53.86
946.65	-84.54
946.95	-120.45
947.25	-108.48
947.55	-136.91
947.85	-148.88
948.15	-93.51
948.45	-76.31
948.76	-74.81
949.06	-131.67
949.36	-146.63
949.66	-130.17
949.96	-83.79
950.26	-178.80
950.56	-143.64
950.86	-142.14
951.16	-94.26
951.46	-109.22
951.76	-120.45
952.06	-79.30
952.36	-98.75
952.66	-73.32
952.96	-110.72
953.26	-51.62
953.56	-173.56
953.86	-88.28
954.16	-115.21
954.45	-62.84
954.75	-95.01
955.05	-47.88
955.35	-101.00
955.65	-15.71
955.95	-117.45
956.25	-133.16
956.55	-212.47
956.85	-121.94
957.15	-26.18
957.45	-124.94
957.74	-155.61
958.04	-162.34
958.34	-152.62
958.64	-124.94
958.94	-146.63
959.24	-115.96
959.54	-162.34
959.83	-14.21
960.13	-148.88
960.43	-188.53
960.73	-169.82
961.03	-151.12
961.33	-111.47
961.62	-83.04
961.92	-82.29
962.22	-50.12
962.52	-171.32
962.82	-138.40
963.11	-87.53
963.41	-154.86
963.71	-92.02
964.01	-119.70
964.30	-197.50
964.60	-146.63
964.90	-140.65
965.20	-117.45
965.49	-114.46
965.79	-123.44
966.09	-171.32
966.39	-114.46
966.68	-53.86
966.98	-169.07
967.28	-85.29
967.57	-150.37
967.87	-177.30
968.17	-187.78
968.46	-183.29
968.76	-197.50
969.06	-71.07
969.35	-155.61
969.65	-110.72
969.95	-115.96
970.24	-68.08
970.54	-121.19
970.84	-157.10
971.13	-49.38
971.43	-122.69
971.72	-179.55
972.02	-85.29
972.32	-121.94
972.61	-127.18
972.91	-114.46
973.20	-62.09
973.50	-71.82
973.79	-54.61
974.09	-67.33
974.39	-129.42
974.68	-96.51
974.98	-145.13
975.27	-88.28
975.57	-121.19
975.86	-204.98
976.16	-92.02
976.45	-144.39
976.75	-127.18
977.04	-130.17
977.34	-118.20
977.63	-149.62
977.93	-111.47
978.22	-147.38
978.52	-159.35
978.81	-59.10
979.11	-109.23
979.40	-140.65
979.70	-50.12
979.99	-98.00
980.28	-153.36
980.58	-74.06
980.87	-175.06
981.17	-136.16
981.46	-176.56
981.76	-56.11
982.05	-124.19
982.34	-115.21
982.64	-133.16
982.93	-61.35
983.23	-182.54
983.52	-147.38
983.81	-126.43
984.11	-153.36
984.40	-121.19
984.69	-151.12
984.99	-82.29
985.28	-93.51
985.57	-109.22
985.87	-137.65
986.16	0.75
986.45	-45.64
986.75	-128.68
987.04	-165.33
987.33	-145.13
987.63	-143.64
987.92	-76.31
988.21	-80.05
988.50	-183.29
988.80	-135.41
989.09	-137.65
989.38	-172.07
989.68	-144.39
989.97	-115.96
990.26	-251.37
990.55	-209.47
990.84	-122.69
991.14	-127.18
991.43	-91.27
991.72	-117.45
992.01	-54.61
992.31	-124.19
992.60	-203.49
992.89	-108.48
993.18	-114.46
993.47	-157.85
993.76	-121.19
994.06	-69.57
994.35	-140.65
994.64	-80.05
994.93	-143.64
995.22	-136.16
995.51	-144.39
995.80	-82.29
996.10	-104.74
996.39	-41.89
996.68	-61.35
996.97	-117.45
997.26	-161.59
997.55	-81.54
997.84	-94.26
998.13	-130.92
998.42	-133.16
998.71	-133.16
999.00	-100.25
999.30	-175.06
999.59	-146.63
999.88	-117.45
1000.17	-175.81
1000.46	-114.46
1000.75	-142.89
1001.04	-118.20
1001.33	-108.48
1001.62	-120.45
1001.91	-151.12
1002.20	-143.64
1002.49	-158.60
1002.78	-145.88
1003.07	-122.69
1003.36	-86.03
1003.65	-163.09
1003.94	-173.56
1004.23	-69.57
1004.52	-80.80
1004.81	-181.79
1005.09	-92.02
1005.38	-131.67
1005.67	-53.86
1005.96	-71.07
1006.25	-147.38
1006.54	-109.22
1006.83	-181.04
1007.12	-154.86
1007.41	-61.35
1007.70	-148.88
1007.99	-98.75
1008.27	-160.85
1008.56	-193.01
1008.85	-97.26
1009.14	-122.69
1009.43	-101.74
1009.72	-178.05
1010.01	-68.83
1010.29	-114.46
1010.58	-181.04
1010.87	-124.94
1011.16	-159.35
1011.45	-112.97
1011.73	-81.54
1012.02	-93.51
1012.31	-77.80
1012.60	-119.70
1012.89	-153.36
1013.17	-174.31
1013.46	-120.45
1013.75	-147.38
1014.04	-128.68
1014.32	-145.88
1014.61	-141.39
1014.90	-143.64
1015.19	-159.35
1015.47	-138.40
1015.76	-118.95
1016.05	-129.42
1016.33	-211.72
1016.62	-101.00
1016.91	-45.64
1017.20	-121.94
1017.48	-102.49
1017.77	-106.98
1018.06	-154.11
1018.34	-99.50
1018.63	-148.88
1018.92	-130.92
1019.20	-128.68
1019.49	4.49
1019.77	-109.97
1020.06	-74.81
1020.35	-164.59
1020.63	-89.77
1020.92	-115.96
1021.21	-106.98
1021.49	-91.27
1021.78	-131.67
1022.06	-96.51
1022.35	-111.47
1022.63	-195.26
1022.92	-96.51
1023.21	-107.73
1023.49	-177.30
1023.78	-127.93
1024.06	-158.60
1024.35	-52.37
1024.63	-130.17
1024.92	-109.97
1025.20	-79.30
1025.49	-83.79
1025.77	-138.40
1026.06	-216.21
1026.34	-187.03
1026.63	-118.20
1026.91	-113.71
1027.20	-184.78
1027.48	-185.53
1027.77	-184.04
1028.05	-159.35
1028.34	-41.15
1028.62	-56.11
1028.91	-99.50
1029.19	-151.87
1029.47	-163.84
1029.76	-191.52
>>>>>End Processed Spectral Data<<<<<
