SpectraSuite Data File
++++++++++++++++++++++++++++++++++++
Date: Mon Feb 16 11:34:38 GMT 2015
User: lew507
Dark Spectrum Present: Yes
Reference Spectrum Present: No
Number of Sampled Component Spectra: 1
Spectrometers: JAZA1505
Integration Time (usec): 3000 (JAZA1505)
Spectra Averaged: 3 (JAZA1505)
Boxcar Smoothing: 0 (JAZA1505)
Correct for Electrical Dark: No (JAZA1505)
Strobe/Lamp Enabled: No (JAZA1505)
Correct for Detector Non-linearity: No (JAZA1505)
Correct for Stray Light: No (JAZA1505)
Number of Pixels in Processed Spectrum: 2048
>>>>>Begin Processed Spectral Data<<<<<
339.60	-154.11
339.98	-154.11
340.36	-154.11
340.74	-121.19
341.12	-110.72
341.50	-148.88
341.88	-83.79
342.26	-32.92
342.64	-189.27
343.02	-63.59
343.40	-79.30
343.78	-95.76
344.17	-169.82
344.55	-121.19
344.93	-204.98
345.31	-35.91
345.69	-54.61
346.07	-124.19
346.45	-146.63
346.83	-68.83
347.21	-29.18
347.59	-44.14
347.97	-169.07
348.35	-98.00
348.73	-139.90
349.11	-115.21
349.49	-190.02
349.87	-145.88
350.25	-140.65
350.63	-28.43
351.01	-141.39
351.39	-80.05
351.77	-213.96
352.15	-100.25
352.53	-182.54
352.91	-133.91
353.29	-121.94
353.67	-128.68
354.05	-104.74
354.43	-106.23
354.81	-157.85
355.19	-235.66
355.57	-142.14
355.95	-124.19
356.33	-110.72
356.71	-105.48
357.09	-39.65
357.47	-115.96
357.84	-101.00
358.22	-122.69
358.60	-94.26
358.98	-148.13
359.36	-61.35
359.74	-61.35
360.12	-119.70
360.50	-126.43
360.88	-117.45
361.26	-124.94
361.64	-175.06
362.02	-89.77
362.39	-128.68
362.77	-138.40
363.15	-41.89
363.53	-189.27
363.91	-102.49
364.29	-117.45
364.67	-137.65
365.05	-109.97
365.42	-121.19
365.80	-184.04
366.18	-118.20
366.56	-174.31
366.94	-72.57
367.32	-32.92
367.70	-127.93
368.07	-60.60
368.45	-101.00
368.83	-73.32
369.21	-204.24
369.59	-4.49
369.97	-148.13
370.34	-102.49
370.72	-87.53
371.10	-60.60
371.48	-113.71
371.86	-122.69
372.23	23.19
372.61	-130.92
372.99	-133.16
373.37	-109.23
373.75	-121.19
374.12	-103.99
374.50	-146.63
374.88	-95.01
375.26	-92.02
375.64	-118.20
376.01	-197.50
376.39	-48.63
376.77	-61.35
377.15	-135.41
377.52	-78.55
377.90	-87.53
378.28	-97.26
378.66	-103.99
379.03	-73.32
379.41	-99.50
379.79	-132.42
380.17	-66.58
380.54	-135.41
380.92	-178.80
381.30	-136.91
381.67	-74.06
382.05	-44.14
382.43	-101.00
382.81	-109.97
383.18	-42.64
383.56	-127.18
383.94	-120.45
384.31	29.18
384.69	-124.19
385.07	-108.48
385.44	-51.62
385.82	-113.71
386.20	-102.49
386.57	-90.52
386.95	-17.21
387.33	-11.97
387.70	-119.70
388.08	-127.93
388.46	-96.51
388.83	-110.72
389.21	-178.05
389.59	-65.09
389.96	-145.88
390.34	-70.32
390.72	-40.40
391.09	-77.06
391.47	-95.01
391.84	-124.19
392.22	-101.00
392.60	-146.63
392.97	-96.51
393.35	-172.07
393.73	-128.68
394.10	-153.36
394.48	-89.77
394.85	-16.46
395.23	-62.84
395.61	-173.56
395.98	-112.97
396.36	-45.64
396.73	-142.14
397.11	-154.86
397.48	-62.09
397.86	-29.18
398.24	-6.73
398.61	-109.97
398.99	-99.50
399.36	-26.93
399.74	-129.42
400.11	-109.22
400.49	-13.47
400.86	-95.76
401.24	-106.23
401.61	-22.44
401.99	-97.26
402.36	-64.34
402.74	-54.61
403.11	-88.28
403.49	-151.87
403.86	-124.94
404.24	-28.43
404.61	-43.39
404.99	-122.69
405.36	-65.83
405.74	-67.33
406.11	-139.15
406.49	-95.76
406.86	-132.42
407.24	-55.36
407.61	-61.35
407.99	-67.33
408.36	-101.00
408.74	-67.33
409.11	-127.93
409.49	-74.81
409.86	-82.29
410.24	-112.97
410.61	-42.64
410.98	-130.92
411.36	-84.54
411.73	-102.49
412.11	-80.80
412.48	-61.35
412.86	-210.97
413.23	-89.77
413.60	-133.91
413.98	-136.91
414.35	-116.71
414.73	-109.97
415.10	-84.54
415.47	-85.29
415.85	-70.32
416.22	-153.36
416.60	-42.64
416.97	-97.26
417.34	-86.03
417.72	-89.77
418.09	-112.97
418.46	-114.46
418.84	-69.57
419.21	-58.35
419.58	-97.26
419.96	-65.09
420.33	-115.96
420.70	-61.35
421.08	-22.44
421.45	-116.71
421.82	-77.80
422.20	-46.38
422.57	-131.67
422.94	-64.34
423.32	-115.96
423.69	-154.86
424.06	-59.10
424.44	-95.01
424.81	-98.00
425.18	-61.35
425.56	-126.43
425.93	-63.59
426.30	-125.68
426.67	-98.75
427.05	-154.11
427.42	-139.90
427.79	-121.94
428.17	-55.36
428.54	-184.04
428.91	-58.35
429.28	-71.07
429.66	-71.07
430.03	-136.91
430.40	-127.18
430.77	-103.24
431.15	-93.51
431.52	-143.64
431.89	-91.27
432.26	-115.96
432.63	-105.48
433.01	-104.74
433.38	-129.42
433.75	-135.41
434.12	-110.72
434.50	-31.42
434.87	-106.98
435.24	-127.18
435.61	-129.42
435.98	-53.86
436.36	-50.12
436.73	-149.62
437.10	-74.06
437.47	-61.35
437.84	-133.91
438.21	-121.19
438.59	-120.45
438.96	-77.06
439.33	-71.82
439.70	2.24
440.07	-66.58
440.44	-111.47
440.81	-106.23
441.19	-166.08
441.56	-10.47
441.93	-45.64
442.30	-61.35
442.67	-56.86
443.04	-55.36
443.41	-115.96
443.78	-174.31
444.16	-65.83
444.53	-126.43
444.90	40.40
445.27	-27.68
445.64	-35.91
446.01	-58.35
446.38	-80.80
446.75	-112.97
447.12	-59.85
447.49	-84.54
447.86	26.93
448.24	-34.41
448.61	-74.06
448.98	0.00
449.35	5.98
449.72	-77.06
450.09	-71.82
450.46	-58.35
450.83	-80.80
451.20	-38.90
451.57	-5.24
451.94	-29.92
452.31	-80.05
452.68	-50.12
453.05	-59.10
453.42	-40.40
453.79	23.94
454.16	32.92
454.53	-23.19
454.90	-33.67
455.27	11.22
455.64	-20.95
456.01	7.48
456.38	-21.70
456.75	-51.62
457.12	-40.40
457.49	-30.67
457.86	34.41
458.23	134.66
458.60	32.92
458.97	-40.40
459.34	-29.18
459.71	9.73
460.08	-103.99
460.45	26.18
460.82	80.80
461.18	20.95
461.55	49.38
461.92	80.80
462.29	72.57
462.66	44.89
463.03	71.07
463.40	93.51
463.77	37.41
464.14	6.73
464.51	61.35
464.88	148.13
465.25	4.49
465.61	52.37
465.98	71.82
466.35	77.80
466.72	88.28
467.09	-37.41
467.46	76.31
467.83	105.48
468.20	125.68
468.56	158.60
468.93	211.72
469.30	158.60
469.67	133.16
470.04	98.75
470.41	84.54
470.77	112.97
471.14	113.71
471.51	135.41
471.88	116.71
472.25	156.36
472.62	209.47
472.98	258.10
473.35	273.06
473.72	195.26
474.09	241.64
474.46	253.61
474.82	147.38
475.19	166.08
475.56	276.05
475.93	217.70
476.29	216.21
476.66	336.65
477.03	273.06
477.40	277.55
477.77	241.64
478.13	275.31
478.50	319.45
478.87	371.07
479.24	371.81
479.60	344.13
479.97	386.78
480.34	421.94
480.71	372.56
481.07	434.66
481.44	466.08
481.81	565.58
482.17	585.03
482.54	522.19
482.91	475.80
483.28	653.85
483.64	671.06
484.01	718.19
484.38	626.92
484.74	766.07
485.11	730.16
485.48	870.06
485.84	809.46
486.21	843.13
486.58	851.36
486.94	929.16
487.31	982.28
487.68	1058.58
488.04	1155.09
488.41	1138.63
488.78	1199.23
489.14	1313.69
489.51	1262.07
489.87	1426.66
490.24	1409.45
490.61	1513.44
490.97	1671.29
491.34	1617.43
491.71	1750.59
492.07	1841.11
492.44	1948.84
492.80	2022.16
493.17	2084.25
493.54	2226.39
493.90	2262.30
494.27	2387.99
494.63	2364.80
495.00	2649.08
495.37	2725.39
495.73	2784.49
496.10	2854.81
496.46	3069.52
496.83	3151.07
497.19	3270.77
497.56	3442.83
497.92	3516.15
498.29	3643.33
498.65	3750.31
499.02	3857.29
499.39	4040.58
499.75	4199.18
500.12	4529.10
500.48	4480.47
500.85	4663.01
501.21	4841.81
501.58	5078.21
501.94	5270.48
502.31	5399.90
502.67	5618.35
503.04	5709.62
503.40	6073.21
503.77	6142.04
504.13	6384.43
504.50	6567.71
504.86	6796.64
505.23	7109.35
505.59	7365.21
505.95	7567.20
506.32	7863.45
506.68	7946.49
507.05	8167.94
507.41	8474.66
507.78	8723.04
508.14	8978.15
508.51	9175.65
508.87	9608.81
509.23	9842.97
509.60	10157.18
509.96	10319.52
510.33	10579.11
510.69	10869.38
511.05	11143.19
511.42	11298.80
511.78	11699.04
512.15	11948.17
512.51	12380.58
512.87	12718.73
513.24	12802.52
513.60	13153.38
513.97	13588.79
514.33	13868.58
514.69	14175.31
515.06	14416.20
515.42	14658.59
515.78	15058.09
516.15	15377.53
516.51	15818.92
516.87	16213.18
517.24	16313.43
517.60	16421.90
517.96	16635.12
518.33	17125.13
518.69	17408.67
519.05	17974.99
519.42	17974.25
519.78	18288.45
520.14	18556.28
520.51	18820.37
520.87	19229.58
521.23	19299.16
521.59	19722.59
521.96	19951.52
522.32	20104.13
522.68	20304.63
523.05	20756.49
523.41	20802.13
523.77	20966.71
524.13	21261.47
524.50	21336.28
524.86	21648.25
525.22	21889.14
525.58	21914.57
525.95	21985.65
526.31	22151.73
526.67	22471.17
527.03	22363.44
527.39	22517.56
527.76	22654.46
528.12	22634.26
528.48	22857.95
528.84	22814.56
529.20	22652.22
529.57	22667.18
529.93	22615.56
530.29	22722.54
530.65	22599.10
531.01	22477.16
531.38	22695.61
531.74	22436.01
532.10	22618.55
532.46	22355.96
532.82	22341.75
533.18	22115.07
533.55	21972.93
533.91	21788.89
534.27	21739.52
534.63	21777.67
534.99	21580.17
535.35	21197.88
535.71	21242.02
536.08	20981.67
536.44	20719.83
536.80	20532.06
537.16	20359.24
537.52	20009.12
537.88	19851.27
538.24	19561.75
538.60	19269.24
538.96	19249.04
539.32	18875.73
539.69	18634.08
540.05	18463.51
540.41	18242.07
540.77	17897.19
541.13	17692.21
541.49	17407.92
541.85	17007.68
542.21	16914.16
542.57	16374.77
542.93	16430.13
543.29	16124.90
543.65	16004.45
544.01	15778.52
544.37	15423.17
544.73	15240.63
545.09	15200.23
545.45	15021.43
545.81	14628.67
546.17	14553.86
546.53	14170.07
546.89	14136.41
547.25	13945.64
547.61	13644.15
547.97	13616.47
548.33	13540.91
548.69	13205.75
549.05	12979.82
549.41	12909.50
549.77	12708.25
550.13	12599.78
550.49	12441.92
550.85	12100.04
551.21	12147.17
551.57	11952.66
551.93	11758.89
552.29	11534.46
552.65	11472.37
553.01	11280.10
553.37	11058.66
553.73	10994.32
554.09	10945.69
554.44	10454.93
554.80	10474.38
555.16	10433.98
555.52	10259.67
555.88	10038.97
556.24	10066.65
556.60	9991.84
556.96	9622.27
557.32	9545.97
557.68	9417.29
558.03	9404.57
558.39	9238.49
558.75	9008.07
559.11	8973.66
559.47	8725.28
559.83	8623.54
560.19	8468.68
560.54	8287.63
560.90	8266.69
561.26	8220.30
561.62	8072.92
561.98	7624.80
562.34	7692.88
562.69	7656.22
563.05	7520.81
563.41	7400.37
563.77	7160.97
564.13	7168.45
564.48	6951.50
564.84	6762.22
565.20	6732.30
565.56	6406.12
565.92	6440.53
566.27	6198.89
566.63	6185.43
566.99	5950.52
567.35	5795.66
567.70	5702.14
568.06	5711.12
568.42	5515.86
568.78	5330.33
569.13	5239.06
569.49	5010.14
569.85	5079.71
570.21	4898.67
570.56	4817.12
570.92	4593.43
571.28	4624.86
571.63	4342.07
571.99	4289.70
572.35	4220.12
572.71	4093.69
573.06	3994.19
573.42	3968.76
573.78	3783.97
574.13	3764.52
574.49	3630.61
574.85	3483.23
575.20	3436.85
575.56	3329.87
575.92	3203.43
576.27	3228.12
576.63	3181.74
576.99	3108.42
577.34	2906.43
577.70	2885.49
578.06	2775.51
578.41	2705.19
578.77	2708.18
579.13	2582.50
579.48	2546.59
579.84	2523.40
580.19	2432.87
580.55	2314.67
580.91	2254.82
581.26	2346.84
581.62	2146.35
581.97	2130.64
582.33	2099.96
582.69	1999.72
583.04	1883.01
583.40	1849.34
583.75	1854.58
584.11	1872.54
584.46	1715.43
584.82	1702.71
585.17	1740.87
585.53	1606.95
585.89	1530.65
586.24	1561.32
586.60	1624.91
586.95	1396.73
587.31	1380.27
587.66	1440.12
588.02	1398.98
588.37	1348.85
588.73	1340.62
589.08	1198.48
589.44	1247.86
589.79	1186.51
590.15	1107.96
590.50	1098.98
590.86	1132.65
591.21	1153.60
591.57	1033.15
591.92	965.82
592.28	1042.87
592.63	970.31
592.99	929.16
593.34	867.82
593.69	898.49
594.05	904.47
594.40	806.47
594.76	798.24
595.11	772.06
595.47	873.05
595.82	623.18
596.18	711.46
596.53	697.99
596.88	669.56
597.24	700.99
597.59	577.55
597.95	634.40
598.30	567.07
598.65	558.84
599.01	545.38
599.36	537.15
599.71	468.32
600.07	491.51
600.42	426.43
600.78	383.78
601.13	403.98
601.48	440.64
601.84	504.23
602.19	403.98
602.54	278.30
602.90	308.22
603.25	308.97
603.60	299.99
603.96	294.01
604.31	235.66
604.66	302.24
605.02	300.74
605.37	281.29
605.72	276.05
606.08	305.98
606.43	227.43
606.78	249.12
607.13	280.54
607.49	231.17
607.84	171.32
608.19	151.87
608.55	51.62
608.90	87.53
609.25	44.89
609.60	86.78
609.96	140.65
610.31	92.02
610.66	138.40
611.01	108.48
611.37	148.13
611.72	49.38
612.07	17.95
612.42	90.52
612.77	71.82
613.13	62.84
613.48	31.42
613.83	29.18
614.18	-59.85
614.53	22.44
614.89	-18.70
615.24	-92.77
615.59	59.10
615.94	-57.60
616.29	26.93
616.65	0.00
617.00	-89.03
617.35	-80.05
617.70	-35.16
618.05	-15.71
618.40	-68.08
618.75	-40.40
619.11	44.89
619.46	-22.44
619.81	-81.54
620.16	-56.11
620.51	-56.11
620.86	-92.02
621.21	-95.01
621.56	-36.66
621.92	-44.89
622.27	-110.72
622.62	-91.27
622.97	-80.05
623.32	-77.06
623.67	-29.18
624.02	-76.31
624.37	-115.21
624.72	-117.45
625.07	-165.33
625.42	-29.18
625.77	-160.10
626.12	-27.68
626.47	-44.89
626.82	-149.62
627.18	-56.86
627.53	-48.63
627.88	-83.04
628.23	-52.37
628.58	-150.37
628.93	-88.28
629.28	2.24
629.63	-69.57
629.98	-43.39
630.33	-90.52
630.68	-25.44
631.03	-65.09
631.38	-38.15
631.73	-65.83
632.08	-54.61
632.43	-18.70
632.78	-89.03
633.12	-78.55
633.47	-105.48
633.82	-72.57
634.17	-56.11
634.52	-74.06
634.87	-60.60
635.22	6.73
635.57	-94.26
635.92	-62.84
636.27	-46.38
636.62	-86.03
636.97	-66.58
637.32	-20.95
637.67	-106.23
638.01	-94.26
638.36	-108.48
638.71	-120.45
639.06	-129.42
639.41	-136.91
639.76	-151.87
640.11	-74.06
640.46	-88.28
640.81	-101.74
641.15	-85.29
641.50	-28.43
641.85	-74.06
642.20	-43.39
642.55	-75.56
642.90	1.50
643.24	-114.46
643.59	-139.15
643.94	-59.85
644.29	-60.60
644.64	-121.94
644.99	-37.41
645.33	-84.54
645.68	-32.17
646.03	-77.06
646.38	-35.16
646.72	-22.44
647.07	-63.59
647.42	-67.33
647.77	-71.07
648.12	-118.20
648.46	-85.29
648.81	-65.09
649.16	-107.73
649.51	-80.80
649.85	-79.30
650.20	-73.32
650.55	-32.92
650.90	-93.51
651.24	-69.57
651.59	-145.88
651.94	-90.52
652.28	-126.43
652.63	-111.47
652.98	-62.09
653.33	-150.37
653.67	-43.39
654.02	-118.20
654.37	-38.90
654.71	-92.02
655.06	-159.35
655.41	-107.73
655.75	-83.04
656.10	-143.64
656.45	-118.95
656.79	-136.91
657.14	-101.00
657.49	-72.57
657.83	-23.94
658.18	-103.24
658.53	-150.37
658.87	-146.63
659.22	-77.80
659.56	-96.51
659.91	-23.19
660.26	-97.26
660.60	-79.30
660.95	-97.26
661.29	-70.32
661.64	-73.32
661.99	-77.06
662.33	-34.41
662.68	-103.24
663.02	-161.59
663.37	-50.12
663.72	-46.38
664.06	-28.43
664.41	-86.03
664.75	-126.43
665.10	-131.67
665.44	-89.77
665.79	-256.60
666.13	-80.05
666.48	-112.22
666.82	-114.46
667.17	-55.36
667.51	-136.16
667.86	-79.30
668.20	-76.31
668.55	-142.14
668.89	-94.26
669.24	-50.12
669.58	-142.89
669.93	-103.99
670.27	-138.40
670.62	-172.07
670.96	-133.91
671.31	-165.33
671.65	-122.69
672.00	-178.05
672.34	-183.29
672.69	-80.80
673.03	-26.93
673.38	-107.73
673.72	-101.00
674.06	-16.46
674.41	-103.24
674.75	-111.47
675.10	-148.13
675.44	-44.14
675.78	-130.17
676.13	-141.39
676.47	-108.48
676.82	-103.24
677.16	-94.26
677.50	-100.25
677.85	-114.46
678.19	-99.50
678.54	-133.91
678.88	-156.36
679.22	-120.45
679.57	-87.53
679.91	-92.77
680.25	-150.37
680.60	-181.04
680.94	-113.71
681.28	-118.95
681.63	-83.04
681.97	-157.10
682.31	-23.94
682.66	-142.89
683.00	-99.50
683.34	-95.76
683.69	-91.27
684.03	-88.28
684.37	-149.62
684.71	-100.25
685.06	-173.56
685.40	-74.81
685.74	-103.24
686.09	-92.02
686.43	-96.51
686.77	-102.49
687.11	-122.69
687.46	-86.03
687.80	-112.97
688.14	-115.21
688.48	-114.46
688.82	-92.77
689.17	-121.94
689.51	-80.80
689.85	-68.83
690.19	-101.00
690.54	-103.24
690.88	-68.08
691.22	-131.67
691.56	-60.60
691.90	-158.60
692.25	-96.51
692.59	-46.38
692.93	-57.60
693.27	-115.21
693.61	-113.71
693.95	-94.26
694.30	-112.22
694.64	-145.13
694.98	-56.11
695.32	-133.16
695.66	-164.59
696.00	-123.44
696.34	-165.33
696.68	-116.71
697.03	-113.71
697.37	-162.34
697.71	-79.30
698.05	-101.00
698.39	-142.14
698.73	-114.46
699.07	-116.71
699.41	-77.06
699.75	-175.81
700.09	-102.49
700.44	-92.77
700.78	-174.31
701.12	-145.13
701.46	-151.12
701.80	-170.57
702.14	-116.71
702.48	-175.81
702.82	-24.69
703.16	-160.85
703.50	-94.26
703.84	-145.88
704.18	-163.09
704.52	-159.35
704.86	-98.00
705.20	-127.93
705.54	-65.09
705.88	-41.15
706.22	-106.23
706.56	-146.63
706.90	-90.52
707.24	-154.11
707.58	-89.03
707.92	-76.31
708.26	-115.21
708.60	-94.26
708.94	-56.86
709.28	-75.56
709.62	-89.77
709.96	-120.45
710.30	-143.64
710.63	-136.16
710.97	-98.75
711.31	-79.30
711.65	-95.01
711.99	-123.44
712.33	-73.32
712.67	-118.20
713.01	-146.63
713.35	-130.17
713.69	-89.77
714.03	-134.66
714.36	-109.22
714.70	-95.76
715.04	-65.09
715.38	-168.33
715.72	-56.11
716.06	-103.99
716.40	-60.60
716.73	-145.88
717.07	-113.71
717.41	-73.32
717.75	-182.54
718.09	-124.19
718.43	-7.48
718.76	-86.03
719.10	-68.08
719.44	-147.38
719.78	-138.40
720.12	-145.13
720.45	-154.86
720.79	-68.83
721.13	-92.77
721.47	-86.03
721.80	-77.80
722.14	-147.38
722.48	-90.52
722.82	-163.84
723.16	-160.85
723.49	-97.26
723.83	-74.06
724.17	-157.10
724.50	-98.00
724.84	-143.64
725.18	-109.23
725.52	-134.66
725.85	-90.52
726.19	-112.22
726.53	-80.05
726.87	-115.21
727.20	-115.21
727.54	-118.20
727.88	-112.22
728.21	-130.17
728.55	-125.68
728.89	-158.60
729.22	-136.16
729.56	-190.77
729.90	-97.26
730.23	-133.91
730.57	-87.53
730.91	-148.13
731.24	-165.33
731.58	-198.25
731.91	-120.45
732.25	-124.19
732.59	-38.15
732.92	-124.94
733.26	-148.13
733.60	-163.09
733.93	-65.83
734.27	-115.21
734.60	-69.57
734.94	-204.24
735.27	-193.01
735.61	-80.05
735.95	-143.64
736.28	-95.01
736.62	-140.65
736.95	-105.48
737.29	-115.96
737.62	-101.74
737.96	-114.46
738.29	-71.82
738.63	-126.43
738.97	-70.32
739.30	-18.70
739.64	-77.80
739.97	-181.04
740.31	-174.31
740.64	-59.10
740.98	-96.51
741.31	-134.66
741.65	-116.71
741.98	-220.69
742.32	-109.97
742.65	-65.83
742.98	-86.03
743.32	-65.83
743.65	-102.49
743.99	-72.57
744.32	-98.00
744.66	-98.75
744.99	-148.88
745.33	-136.91
745.66	-157.85
745.99	-151.87
746.33	-86.78
746.66	-109.97
747.00	-133.91
747.33	-105.48
747.67	-89.77
748.00	-116.71
748.33	-121.19
748.67	-30.67
749.00	-160.85
749.33	-70.32
749.67	-112.22
750.00	-54.61
750.34	-59.10
750.67	-83.79
751.00	-98.00
751.34	-103.99
751.67	-56.86
752.00	-145.13
752.34	-64.34
752.67	-106.23
753.00	-128.68
753.34	-136.16
753.67	-124.19
754.00	-65.09
754.34	-169.07
754.67	-139.15
755.00	-106.98
755.33	-116.71
755.67	-135.41
756.00	-181.79
756.33	-130.17
756.67	-194.51
757.00	-155.61
757.33	-47.13
757.66	-124.19
758.00	-141.39
758.33	-32.92
758.66	-97.26
758.99	-101.00
759.33	-163.09
759.66	-142.89
759.99	-114.46
760.32	-166.83
760.65	-89.77
760.99	-105.48
761.32	-126.43
761.65	-9.73
761.98	-189.27
762.31	-78.55
762.65	-231.92
762.98	-99.50
763.31	-116.71
763.64	-143.64
763.97	-129.42
764.30	-61.35
764.64	-111.47
764.97	-36.66
765.30	35.91
765.63	-85.29
765.96	-80.80
766.29	-134.66
766.62	-127.18
766.95	-115.21
767.29	-100.25
767.62	-62.84
767.95	-59.10
768.28	-142.14
768.61	-101.74
768.94	-98.75
769.27	-111.47
769.60	-191.52
769.93	-115.96
770.26	-107.73
770.59	-107.73
770.92	-115.96
771.25	-88.28
771.59	-117.45
771.92	-139.15
772.25	-65.83
772.58	-93.51
772.91	-121.19
773.24	-151.87
773.57	-50.12
773.90	-150.37
774.23	-66.58
774.56	-153.36
774.89	-95.76
775.22	-99.50
775.55	-103.24
775.88	-160.85
776.21	-50.87
776.54	-142.14
776.87	-118.95
777.20	-80.80
777.53	-82.29
777.85	-102.49
778.18	-92.77
778.51	-109.97
778.84	-160.10
779.17	-83.04
779.50	-230.42
779.83	-194.51
780.16	-191.52
780.49	-14.96
780.82	-174.31
781.15	-137.65
781.48	-184.04
781.81	-137.65
782.13	-145.13
782.46	-139.90
782.79	-151.12
783.12	-89.77
783.45	-142.14
783.78	-77.06
784.11	-86.78
784.43	-46.38
784.76	-62.09
785.09	-160.10
785.42	-112.97
785.75	-106.23
786.08	-62.84
786.40	-103.24
786.73	-35.16
787.06	-140.65
787.39	-111.47
787.72	-80.80
788.04	-154.11
788.37	-139.90
788.70	-136.16
789.03	-136.91
789.36	-103.24
789.68	-78.55
790.01	-130.17
790.34	-38.15
790.67	-61.35
790.99	-86.78
791.32	-96.51
791.65	-98.00
791.98	-80.80
792.30	-44.89
792.63	-135.41
792.96	-184.04
793.29	-98.00
793.61	-160.85
793.94	-100.25
794.27	-151.12
794.59	-133.91
794.92	-121.94
795.25	-118.20
795.57	-116.71
795.90	-133.91
796.23	-105.48
796.55	-68.83
796.88	-76.31
797.21	-143.64
797.53	-145.88
797.86	-130.92
798.19	-117.45
798.51	-177.30
798.84	-137.65
799.17	-160.10
799.49	-51.62
799.82	-78.55
800.14	-115.21
800.47	-133.16
800.80	-160.85
801.12	-101.00
801.45	-152.62
801.77	-193.76
802.10	-32.92
802.43	-130.92
802.75	-140.65
803.08	-108.48
803.40	-110.72
803.73	-150.37
804.05	-30.67
804.38	-205.73
804.70	-130.92
805.03	-168.33
805.35	-147.38
805.68	-184.04
806.01	-139.90
806.33	-121.94
806.66	-63.59
806.98	-143.64
807.31	-199.00
807.63	-71.82
807.96	-136.91
808.28	-106.98
808.60	-137.65
808.93	-77.06
809.25	-104.74
809.58	-65.09
809.90	-132.42
810.23	-142.89
810.55	-77.80
810.88	-95.76
811.20	-70.32
811.53	-66.58
811.85	-89.77
812.17	-98.75
812.50	-109.97
812.82	-106.98
813.15	-11.97
813.47	8.98
813.79	-76.31
814.12	-71.07
814.44	-86.03
814.77	-16.46
815.09	-77.80
815.41	-125.68
815.74	-100.25
816.06	-163.09
816.38	-157.85
816.71	-177.30
817.03	-169.07
817.35	-142.89
817.68	-123.44
818.00	-124.19
818.32	-114.46
818.65	-72.57
818.97	-171.32
819.29	-75.56
819.62	-63.59
819.94	-129.42
820.26	-38.90
820.58	-40.40
820.91	-102.49
821.23	-25.44
821.55	-117.45
821.88	-96.51
822.20	-154.86
822.52	-95.01
822.84	-106.98
823.17	-210.97
823.49	-133.91
823.81	-153.36
824.13	-59.85
824.46	-38.15
824.78	-125.68
825.10	-68.83
825.42	-64.34
825.74	-73.32
826.07	-176.56
826.39	-118.20
826.71	-134.66
827.03	-148.88
827.35	-84.54
827.67	-84.54
828.00	-130.92
828.32	-123.44
828.64	-115.96
828.96	-105.48
829.28	-39.65
829.60	-90.52
829.93	-124.94
830.25	-125.68
830.57	-193.01
830.89	-101.00
831.21	-68.83
831.53	-136.91
831.85	-112.97
832.17	-165.33
832.49	-157.85
832.82	-128.68
833.14	-109.22
833.46	-149.62
833.78	-136.16
834.10	-119.70
834.42	-103.24
834.74	-154.11
835.06	-63.59
835.38	-103.24
835.70	-26.93
836.02	-35.91
836.34	-86.78
836.66	-103.24
836.98	-17.21
837.30	-52.37
837.62	-89.77
837.94	-74.81
838.26	-175.81
838.58	-37.41
838.90	-120.45
839.22	-116.71
839.54	-122.69
839.86	-67.33
840.18	-94.26
840.50	-57.60
840.82	-52.37
841.14	-100.25
841.46	-20.95
841.78	-160.85
842.10	-147.38
842.42	-142.14
842.74	-90.52
843.06	-177.30
843.38	-121.19
843.69	-85.29
844.01	-105.48
844.33	-121.94
844.65	-127.18
844.97	-38.90
845.29	-95.01
845.61	-121.19
845.93	-73.32
846.25	-148.13
846.56	-96.51
846.88	-136.16
847.20	-128.68
847.52	-160.85
847.84	-107.73
848.16	-57.60
848.47	-155.61
848.79	-92.77
849.11	-141.39
849.43	-86.03
849.75	-160.10
850.07	-96.51
850.38	-121.94
850.70	-124.19
851.02	-162.34
851.34	-158.60
851.66	-169.82
851.97	-38.15
852.29	-120.45
852.61	-143.64
852.93	-174.31
853.24	-137.65
853.56	-149.62
853.88	-105.48
854.20	-120.45
854.51	-151.12
854.83	-201.99
855.15	-35.91
855.46	-53.86
855.78	-108.48
856.10	-138.40
856.42	-136.91
856.73	-131.67
857.05	-98.75
857.37	-68.83
857.68	-111.47
858.00	-130.17
858.32	-111.47
858.63	-62.84
858.95	-47.88
859.27	-137.65
859.58	-85.29
859.90	-136.91
860.22	-198.25
860.53	-64.34
860.85	-187.03
861.16	-140.65
861.48	-118.95
861.80	-89.03
862.11	-107.73
862.43	-104.74
862.74	-62.84
863.06	-181.79
863.38	-104.74
863.69	-150.37
864.01	-104.74
864.32	-140.65
864.64	-57.60
864.95	-173.56
865.27	-63.59
865.59	-53.86
865.90	-71.07
866.22	-85.29
866.53	-50.12
866.85	-131.67
867.16	-107.73
867.48	-103.24
867.79	-44.14
868.11	-117.45
868.42	-136.91
868.74	-80.80
869.05	-144.39
869.37	-76.31
869.68	-191.52
870.00	-132.42
870.31	-111.47
870.63	-104.74
870.94	-135.41
871.25	-171.32
871.57	-84.54
871.88	-125.68
872.20	-53.86
872.51	-85.29
872.83	-39.65
873.14	-128.68
873.45	-150.37
873.77	-65.09
874.08	-118.95
874.40	-113.71
874.71	-83.04
875.02	-177.30
875.34	-75.56
875.65	-86.03
875.96	-46.38
876.28	-60.60
876.59	-84.54
876.91	-74.81
877.22	-217.70
877.53	-157.85
877.85	-134.66
878.16	-38.15
878.47	-106.98
878.79	-94.26
879.10	-164.59
879.41	-127.18
879.72	-167.58
880.04	-111.47
880.35	-118.20
880.66	-154.11
880.98	-128.68
881.29	-50.87
881.60	-103.24
881.91	-107.73
882.23	-108.48
882.54	-78.55
882.85	-172.81
883.16	-204.24
883.48	-142.14
883.79	-183.29
884.10	-100.25
884.41	-44.14
884.73	-65.83
885.04	-98.00
885.35	-127.93
885.66	-78.55
885.97	-59.10
886.29	-129.42
886.60	-145.13
886.91	-46.38
887.22	-169.82
887.53	-104.74
887.84	-86.78
888.16	-133.91
888.47	-103.99
888.78	-152.62
889.09	-113.71
889.40	-65.09
889.71	-139.15
890.02	-49.38
890.34	-160.10
890.65	-107.73
890.96	-103.99
891.27	-133.91
891.58	-65.83
891.89	-92.02
892.20	-163.09
892.51	-181.04
892.82	-67.33
893.13	-164.59
893.44	-98.00
893.75	-77.80
894.07	-170.57
894.38	-116.71
894.69	-151.87
895.00	-80.05
895.31	-101.74
895.62	-142.14
895.93	-137.65
896.24	-80.80
896.55	-124.94
896.86	-65.09
897.17	-133.91
897.48	-159.35
897.79	-143.64
898.10	-114.46
898.41	-174.31
898.72	-166.83
899.03	-188.53
899.34	-90.52
899.65	-184.04
899.95	-80.80
900.26	-166.83
900.57	-264.83
900.88	-133.91
901.19	-98.75
901.50	-153.36
901.81	-162.34
902.12	-92.02
902.43	-133.91
902.74	-135.41
903.05	-45.64
903.36	-145.88
903.66	-150.37
903.97	-114.46
904.28	-121.94
904.59	-130.92
904.90	-85.29
905.21	-101.00
905.52	-62.09
905.82	-68.08
906.13	-110.72
906.44	-104.74
906.75	-77.80
907.06	-175.06
907.37	-109.23
907.67	-106.98
907.98	-46.38
908.29	-175.06
908.60	-178.05
908.91	-111.47
909.21	-166.83
909.52	-120.45
909.83	-147.38
910.14	-151.87
910.44	-114.46
910.75	-147.38
911.06	-104.74
911.37	-71.82
911.67	-151.87
911.98	-104.74
912.29	-127.18
912.60	-182.54
912.90	-123.44
913.21	-130.92
913.52	-179.55
913.82	-118.95
914.13	-118.95
914.44	-65.09
914.75	-150.37
915.05	-151.12
915.36	-106.23
915.67	-159.35
915.97	-84.54
916.28	-115.96
916.59	-92.02
916.89	-116.71
917.20	-121.94
917.50	-43.39
917.81	-150.37
918.12	-132.42
918.42	-175.81
918.73	-78.55
919.04	-155.61
919.34	-144.39
919.65	-190.77
919.95	-91.27
920.26	-103.24
920.56	-74.81
920.87	-101.00
921.18	-109.97
921.48	-71.82
921.79	-155.61
922.09	-51.62
922.40	-77.06
922.70	-122.69
923.01	-124.94
923.31	-126.43
923.62	-168.33
923.92	-132.42
924.23	-106.98
924.53	-191.52
924.84	-160.85
925.14	-132.42
925.45	-95.01
925.75	-69.57
926.06	-90.52
926.36	-166.83
926.67	-102.49
926.97	-83.79
927.28	-151.87
927.58	-119.70
927.89	-127.93
928.19	-83.04
928.49	-150.37
928.80	-55.36
929.10	-102.49
929.41	-136.16
929.71	-127.93
930.02	-86.78
930.32	-47.88
930.62	-117.45
930.93	-147.38
931.23	-83.79
931.53	-102.49
931.84	-61.35
932.14	-129.42
932.45	-157.10
932.75	-130.17
933.05	-149.62
933.36	-109.97
933.66	-84.54
933.96	-127.93
934.27	-87.53
934.57	-144.39
934.87	-98.75
935.18	-109.22
935.48	-174.31
935.78	-148.88
936.08	-97.26
936.39	-186.28
936.69	-47.13
936.99	-92.02
937.30	-156.36
937.60	-113.71
937.90	-101.00
938.20	-80.80
938.51	-25.44
938.81	-29.18
939.11	-92.77
939.41	-71.07
939.72	-125.68
940.02	-153.36
940.32	-130.92
940.62	-114.46
940.92	-91.27
941.23	-130.17
941.53	-112.22
941.83	-101.74
942.13	-94.26
942.43	-123.44
942.73	-113.71
943.04	-105.48
943.34	-164.59
943.64	-77.06
943.94	-96.51
944.24	-112.22
944.54	-111.47
944.84	-61.35
945.15	-99.50
945.45	-132.42
945.75	-74.81
946.05	-130.92
946.35	-35.91
946.65	-111.47
946.95	-140.65
947.25	-121.19
947.55	-118.20
947.85	-117.45
948.15	-109.97
948.45	-36.66
948.76	-95.01
949.06	-86.78
949.36	-126.43
949.66	-123.44
949.96	-139.90
950.26	-176.56
950.56	-136.91
950.86	-122.69
951.16	-63.59
951.46	-135.41
951.76	-136.91
952.06	-72.57
952.36	-101.00
952.66	-67.33
952.96	-124.94
953.26	-89.03
953.56	-160.85
953.86	-108.48
954.16	-139.15
954.45	-86.03
954.75	-77.80
955.05	-64.34
955.35	-123.44
955.65	-19.45
955.95	-111.47
956.25	-120.45
956.55	-193.76
956.85	-86.78
957.15	-64.34
957.45	-157.10
957.74	-148.13
958.04	-204.24
958.34	-130.92
958.64	-146.63
958.94	-127.18
959.24	-71.82
959.54	-137.65
959.83	-53.86
960.13	-173.56
960.43	-157.85
960.73	-194.51
961.03	-83.04
961.33	-117.45
961.62	-101.00
961.92	-60.60
962.22	-28.43
962.52	-143.64
962.82	-152.62
963.11	-51.62
963.41	-188.53
963.71	-79.30
964.01	-124.94
964.30	-151.87
964.60	-103.99
964.90	-107.73
965.20	-117.45
965.49	-118.95
965.79	-136.16
966.09	-191.52
966.39	-152.62
966.68	-41.15
966.98	-150.37
967.28	-80.05
967.57	-115.21
967.87	-148.13
968.17	-163.84
968.46	-140.65
968.76	-197.50
969.06	-72.57
969.35	-166.83
969.65	-124.94
969.95	-116.71
970.24	-72.57
970.54	-143.64
970.84	-116.71
971.13	-149.62
971.43	-142.14
971.72	-136.16
972.02	-45.64
972.32	-127.93
972.61	-91.27
972.91	-97.26
973.20	-22.44
973.50	-83.79
973.79	-10.47
974.09	-61.35
974.39	-130.17
974.68	-89.03
974.98	-176.56
975.27	-138.40
975.57	-153.36
975.86	-235.66
976.16	-38.15
976.45	-98.75
976.75	-136.16
977.04	-95.01
977.34	-94.26
977.63	-163.09
977.93	-145.13
978.22	-173.56
978.52	-89.03
978.81	-68.08
979.11	-124.19
979.40	-92.77
979.70	-56.11
979.99	-80.05
980.28	-141.39
980.58	-59.85
980.87	-140.65
981.17	-133.91
981.46	-185.53
981.76	-51.62
982.05	-108.48
982.34	-167.58
982.64	-139.15
982.93	-12.72
983.23	-160.85
983.52	-112.97
983.81	-125.68
984.11	-138.40
984.40	-95.01
984.69	-163.84
984.99	-122.69
985.28	-113.71
985.57	-121.94
985.87	-129.42
986.16	-44.14
986.45	-89.77
986.75	-167.58
987.04	-121.19
987.33	-124.19
987.63	-160.85
987.92	-106.23
988.21	-52.37
988.50	-184.04
988.80	-161.59
989.09	-139.15
989.38	-133.91
989.68	-80.80
989.97	-104.74
990.26	-204.98
990.55	-175.06
990.84	-118.20
991.14	-101.00
991.43	-68.08
991.72	-109.97
992.01	-64.34
992.31	-108.48
992.60	-215.46
992.89	-130.17
993.18	-131.67
993.47	-151.12
993.76	-121.19
994.06	-108.48
994.35	-145.88
994.64	-86.78
994.93	-108.48
995.22	-123.44
995.51	-145.88
995.80	-41.15
996.10	-75.56
996.39	-56.11
996.68	-60.60
996.97	-110.72
997.26	-175.81
997.55	-76.31
997.84	-133.16
998.13	-140.65
998.42	-164.59
998.71	-168.33
999.00	-80.80
999.30	-165.33
999.59	-173.56
999.88	-144.39
1000.17	-190.77
1000.46	-122.69
1000.75	-112.22
1001.04	-93.51
1001.33	-89.03
1001.62	-143.64
1001.91	-148.88
1002.20	-112.22
1002.49	-135.41
1002.78	-122.69
1003.07	-44.89
1003.36	-105.48
1003.65	-144.39
1003.94	-106.98
1004.23	-29.18
1004.52	-73.32
1004.81	-143.64
1005.09	-118.20
1005.38	-171.32
1005.67	-41.15
1005.96	-76.31
1006.25	-112.97
1006.54	-112.97
1006.83	-121.94
1007.12	-127.93
1007.41	-53.12
1007.70	-129.42
1007.99	-74.06
1008.27	-120.45
1008.56	-176.56
1008.85	-121.94
1009.14	-111.47
1009.43	-80.80
1009.72	-161.59
1010.01	-67.33
1010.29	-103.99
1010.58	-154.86
1010.87	-129.42
1011.16	-134.66
1011.45	-107.73
1011.73	-89.77
1012.02	-134.66
1012.31	-26.18
1012.60	-88.28
1012.89	-151.12
1013.17	-224.43
1013.46	-112.97
1013.75	-186.28
1014.04	-118.20
1014.32	-176.56
1014.61	-99.50
1014.90	-141.39
1015.19	-101.74
1015.47	-136.91
1015.76	-83.04
1016.05	-150.37
1016.33	-198.25
1016.62	-109.22
1016.91	-64.34
1017.20	-110.72
1017.48	-58.35
1017.77	-137.65
1018.06	-133.91
1018.34	-80.05
1018.63	-151.12
1018.92	-106.23
1019.20	-102.49
1019.49	-65.09
1019.77	-71.07
1020.06	-115.21
1020.35	-193.76
1020.63	-144.39
1020.92	-139.15
1021.21	-149.62
1021.49	-128.68
1021.78	-113.71
1022.06	-56.11
1022.35	-66.58
1022.63	-184.78
1022.92	-81.54
1023.21	-112.22
1023.49	-178.05
1023.78	-145.88
1024.06	-86.78
1024.35	-39.65
1024.63	-103.99
1024.92	-73.32
1025.20	-65.83
1025.49	-95.01
1025.77	-110.72
1026.06	-171.32
1026.34	-139.90
1026.63	-107.73
1026.91	-115.96
1027.20	-181.04
1027.48	-185.53
1027.77	-173.56
1028.05	-163.84
1028.34	-38.90
1028.62	-68.08
1028.91	-50.87
1029.19	-115.21
1029.47	-162.34
1029.76	-157.85
>>>>>End Processed Spectral Data<<<<<
