SpectraSuite Data File
++++++++++++++++++++++++++++++++++++
Date: Wed Oct 30 14:49:32 GMT 2013
User: WadeLab
Dark Spectrum Present: Yes
Reference Spectrum Present: No
Number of Sampled Component Spectra: 1
Spectrometers: USB2G15413
Integration Time (usec): 19000 (USB2G15413)
Spectra Averaged: 20 (USB2G15413)
Boxcar Smoothing: 0 (USB2G15413)
Correct for Electrical Dark: No (USB2G15413)
Strobe/Lamp Enabled: No (USB2G15413)
Correct for Detector Non-linearity: No (USB2G15413)
Correct for Stray Light: No (USB2G15413)
Number of Pixels in Processed Spectrum: 2048
>>>>>Begin Processed Spectral Data<<<<<
340.56	-0.0000E00
340.94	-0.0000E00
341.32	-0.0000E00
341.70	-0.0000E00
342.08	-0.0000E00
342.46	-0.0000E00
342.84	-0.0000E00
343.22	-0.0000E00
343.60	-0.0000E00
343.98	-0.0000E00
344.36	-0.0000E00
344.74	-0.0000E00
345.12	-0.0000E00
345.50	-0.0000E00
345.88	-0.0000E00
346.26	-0.0000E00
346.64	-0.0000E00
347.02	-0.0000E00
347.40	-0.0000E00
347.78	-0.0000E00
348.16	-0.0000E00
348.54	-0.0000E00
348.92	-0.0000E00
349.30	-0.0000E00
349.68	-4.9758E-01
350.06	-2.0758E-01
350.43	-1.7457E-01
350.81	-2.4394E-01
351.19	-1.5872E-01
351.57	-1.0646E-01
351.95	-1.5466E-01
352.33	-1.1753E-01
352.71	-8.9374E-02
353.09	-9.8681E-02
353.47	-9.5251E-02
353.84	-5.8588E-02
354.22	-8.4674E-02
354.60	-1.1518E-01
354.98	-1.3771E-01
355.36	-1.2893E-01
355.74	-1.0105E-01
356.12	-1.0322E-01
356.50	-1.1378E-01
356.87	-1.5320E-01
357.25	-1.1000E-01
357.63	-1.0035E-01
358.01	-8.7293E-02
358.39	-1.3960E-01
358.77	-9.9547E-02
359.14	-1.0720E-01
359.52	-1.4663E-01
359.90	-1.1228E-01
360.28	-9.2262E-02
360.66	-1.0465E-01
361.03	-1.1078E-01
361.41	-1.3176E-01
361.79	-1.2831E-01
362.17	-1.2347E-01
362.55	-1.2416E-01
362.92	-1.3560E-01
363.30	-1.3337E-01
363.68	-1.1262E-01
364.06	-9.1325E-02
364.44	-1.4022E-01
364.81	-9.1516E-02
365.19	-9.1663E-02
365.57	-6.7248E-02
365.95	-7.1474E-02
366.32	-7.0182E-02
366.70	-9.4637E-02
367.08	-1.0239E-01
367.46	-1.0074E-01
367.83	-1.1698E-01
368.21	-1.0910E-01
368.59	-5.9811E-02
368.96	-7.5821E-02
369.34	-1.2573E-01
369.72	-1.1735E-01
370.10	-1.2992E-01
370.47	-9.6461E-02
370.85	-8.7597E-02
371.23	-7.7944E-02
371.60	-6.8901E-02
371.98	-7.9293E-02
372.36	-5.6851E-02
372.73	-8.7334E-02
373.11	-8.4284E-02
373.49	-8.1050E-02
373.86	-9.4827E-02
374.24	-9.5421E-02
374.62	-6.1714E-02
374.99	-5.8021E-02
375.37	-5.5904E-02
375.75	-7.9410E-02
376.12	-8.1766E-02
376.50	-4.2226E-02
376.88	-6.8050E-02
377.25	-9.8402E-02
377.63	-1.0147E-01
378.01	-7.8193E-02
378.38	-8.8853E-02
378.76	-8.2443E-02
379.13	-9.3541E-02
379.51	-9.4853E-02
379.89	-8.0280E-02
380.26	-7.7890E-02
380.64	-6.3489E-02
381.01	-8.0302E-02
381.39	-9.4169E-02
381.77	-9.3313E-02
382.14	-8.5558E-02
382.52	-6.6920E-02
382.89	-6.8367E-02
383.27	-4.4309E-02
383.65	-3.1705E-02
384.02	-6.4694E-02
384.40	-6.1642E-02
384.77	-8.0236E-02
385.15	-8.3865E-02
385.52	-8.1949E-02
385.90	-6.0149E-02
386.27	-5.8061E-02
386.65	-3.6846E-02
387.02	-5.5569E-02
387.40	-4.9589E-02
387.78	-5.2479E-02
388.15	-3.8425E-02
388.53	-3.6353E-02
388.90	-6.0287E-02
389.28	-1.7397E-02
389.65	-1.5181E-02
390.03	-2.8676E-02
390.40	-2.3839E-02
390.78	-4.3799E-02
391.15	-4.5740E-02
391.53	-6.5583E-03
391.90	-5.0852E-03
392.28	7.1349E-03
392.65	1.7933E-02
393.02	2.7926E-02
393.40	1.4220E-02
393.77	1.6667E-02
394.15	2.9926E-02
394.52	5.3836E-02
394.90	7.1008E-02
395.27	9.3717E-02
395.65	1.0891E-01
396.02	1.1600E-01
396.39	1.3471E-01
396.77	1.3986E-01
397.14	1.8129E-01
397.52	2.0060E-01
397.89	2.1687E-01
398.27	2.6797E-01
398.64	2.9587E-01
399.01	2.9658E-01
399.39	3.3708E-01
399.76	3.7144E-01
400.14	4.2379E-01
400.51	4.8133E-01
400.88	4.8497E-01
401.26	5.5645E-01
401.63	6.1807E-01
402.00	6.5710E-01
402.38	7.3938E-01
402.75	7.7366E-01
403.13	8.2924E-01
403.50	9.2773E-01
403.87	1.0101E00
404.25	1.0339E00
404.62	1.1235E00
404.99	1.2279E00
405.37	1.2919E00
405.74	1.3834E00
406.11	1.4501E00
406.49	1.5514E00
406.86	1.6943E00
407.23	1.7711E00
407.61	1.8228E00
407.98	1.9509E00
408.35	2.0433E00
408.72	2.1361E00
409.10	2.2753E00
409.47	2.3964E00
409.84	2.4309E00
410.22	2.5650E00
410.59	2.6681E00
410.96	2.6977E00
411.33	2.7886E00
411.71	2.8537E00
412.08	2.8959E00
412.45	2.9452E00
412.83	2.9708E00
413.20	2.9874E00
413.57	3.0080E00
413.94	2.9705E00
414.32	2.9440E00
414.69	3.0472E00
415.06	2.9256E00
415.43	2.8745E00
415.80	2.8187E00
416.18	2.8324E00
416.55	2.7076E00
416.92	2.6814E00
417.29	2.5294E00
417.66	2.5277E00
418.04	2.4094E00
418.41	2.3036E00
418.78	2.2190E00
419.15	2.1812E00
419.52	2.0991E00
419.90	2.0160E00
420.27	1.9228E00
420.64	1.8764E00
421.01	1.8024E00
421.38	1.7172E00
421.75	1.6484E00
422.13	1.6248E00
422.50	1.5936E00
422.87	1.5024E00
423.24	1.4572E00
423.61	1.3927E00
423.98	1.3653E00
424.35	1.3020E00
424.73	1.2704E00
425.10	1.2067E00
425.47	1.1741E00
425.84	1.1305E00
426.21	1.0745E00
426.58	1.0426E00
426.95	1.0230E00
427.32	9.8008E-01
427.69	9.3627E-01
428.06	8.9560E-01
428.44	8.6422E-01
428.81	8.2912E-01
429.18	7.9882E-01
429.55	7.4352E-01
429.92	7.2463E-01
430.29	6.9051E-01
430.66	6.4396E-01
431.03	6.3263E-01
431.40	5.7504E-01
431.77	5.8160E-01
432.14	5.4200E-01
432.51	5.1788E-01
432.88	4.8600E-01
433.25	4.6523E-01
433.62	4.6272E-01
433.99	4.3114E-01
434.36	4.2258E-01
434.73	4.0092E-01
435.10	3.7858E-01
435.47	3.6146E-01
435.84	3.5091E-01
436.21	3.3330E-01
436.58	3.0576E-01
436.95	2.8088E-01
437.32	2.6237E-01
437.69	2.5706E-01
438.06	2.4619E-01
438.43	2.4222E-01
438.80	2.3424E-01
439.17	2.1314E-01
439.54	2.0994E-01
439.91	1.9878E-01
440.28	1.9079E-01
440.65	1.7681E-01
441.02	1.6642E-01
441.39	1.5839E-01
441.76	1.6085E-01
442.13	1.5395E-01
442.50	1.4130E-01
442.87	1.3493E-01
443.24	1.3707E-01
443.61	1.3725E-01
443.97	1.2542E-01
444.34	1.1496E-01
444.71	1.1267E-01
445.08	1.1269E-01
445.45	1.1287E-01
445.82	1.0749E-01
446.19	9.7512E-02
446.56	9.2209E-02
446.93	8.0599E-02
447.29	8.4950E-02
447.66	8.1994E-02
448.03	7.9706E-02
448.40	7.8065E-02
448.77	7.6951E-02
449.14	6.6869E-02
449.51	6.7766E-02
449.87	6.7988E-02
450.24	6.1211E-02
450.61	5.9767E-02
450.98	6.0373E-02
451.35	5.5666E-02
451.72	5.8349E-02
452.08	4.9535E-02
452.45	4.7842E-02
452.82	3.9422E-02
453.19	3.8524E-02
453.56	3.9061E-02
453.92	4.0422E-02
454.29	4.0403E-02
454.66	3.8844E-02
455.03	3.5223E-02
455.40	2.9031E-02
455.76	2.8416E-02
456.13	2.6366E-02
456.50	2.4187E-02
456.87	2.3302E-02
457.24	3.0361E-02
457.60	2.5756E-02
457.97	1.9861E-02
458.34	2.4304E-02
458.71	2.9543E-02
459.07	1.1046E-02
459.44	1.4785E-02
459.81	1.4792E-02
460.17	8.0981E-03
460.54	6.4878E-03
460.91	8.3025E-03
461.28	1.2861E-02
461.64	1.1766E-02
462.01	1.0662E-02
462.38	1.2223E-02
462.74	4.2762E-03
463.11	5.4606E-03
463.48	3.9156E-03
463.85	1.0346E-02
464.21	4.8705E-03
464.58	5.0768E-03
464.95	1.5373E-02
465.31	8.6676E-03
465.68	2.5859E-03
466.05	1.8948E-03
466.41	1.8940E-03
466.78	-1.2538E-03
467.15	0.0000E00
467.51	-3.1154E-03
467.88	6.0007E-04
468.24	-3.3504E-03
468.61	-4.4917E-03
468.98	5.9900E-04
469.34	1.4499E-03
469.71	0.0000E00
470.08	-5.9266E-04
470.44	5.8425E-03
470.81	5.4510E-03
471.17	0.0000E00
471.54	1.4122E-03
471.91	-1.0321E-02
472.27	-3.3915E-03
472.64	-2.7843E-04
473.00	-4.1830E-03
473.37	-3.7957E-03
473.74	-1.0113E-02
474.10	-5.4426E-03
474.47	-2.1294E-03
474.83	-2.0966E-03
475.20	-6.7380E-03
475.56	-3.6641E-03
475.93	-9.0107E-03
476.29	-1.3165E-02
476.66	-1.4693E-02
477.03	-8.8185E-03
477.39	-5.4173E-03
477.76	-5.9555E-03
478.12	-9.1667E-03
478.49	-5.0802E-03
478.85	-1.6085E-02
479.22	-8.4704E-03
479.58	-3.7412E-03
479.95	-8.0702E-03
480.31	-1.1818E-02
480.68	-4.4143E-03
481.04	-3.6114E-03
481.41	-5.6750E-03
481.77	-1.1500E-02
482.14	-2.8617E-03
482.50	-8.5205E-03
482.87	-1.0465E-02
483.23	-2.1191E-03
483.59	-1.8419E-03
483.96	-1.0100E-02
484.32	-5.2611E-03
484.69	-5.9109E-03
485.05	-5.9695E-03
485.42	-3.4448E-03
485.78	-3.2395E-03
486.15	-1.8281E-03
486.51	-7.5136E-03
486.87	-9.2477E-03
487.24	-7.2858E-03
487.60	-9.0975E-03
487.97	-1.0901E-02
488.33	-8.7946E-03
488.70	-6.5374E-03
489.06	-1.0148E-02
489.42	-9.4918E-03
489.79	-9.8762E-03
490.15	-1.1654E-02
490.51	-1.4245E-02
490.88	-6.9481E-03
491.24	-1.0197E-02
491.61	-1.0289E-02
491.97	-1.4930E-02
492.33	-9.7676E-03
492.70	-5.3417E-03
493.06	-1.2014E-02
493.42	-1.0711E-02
493.79	-6.2854E-03
494.15	-9.1321E-03
494.51	-1.3870E-02
494.88	-6.9250E-03
495.24	-9.5191E-03
495.60	-8.2583E-03
495.97	-6.2191E-03
496.33	-5.9864E-03
496.69	-7.7291E-03
497.06	-9.7788E-03
497.42	-9.7813E-03
497.78	-1.3795E-02
498.14	-9.3592E-03
498.51	-1.1288E-02
498.87	-1.1722E-02
499.23	-9.3221E-03
499.60	-1.1522E-02
499.96	-9.2447E-03
500.32	-9.8795E-03
500.68	-1.3260E-02
501.05	-1.0182E-02
501.41	-1.4612E-02
501.77	-1.3514E-02
502.13	-1.4156E-02
502.50	-1.2628E-02
502.86	-1.1160E-02
503.22	-1.2091E-02
503.58	-1.0490E-02
503.95	-8.1417E-03
504.31	-6.1665E-03
504.67	-1.3616E-02
505.03	-1.7328E-02
505.39	-1.4815E-02
505.76	-5.0520E-03
506.12	-6.3495E-03
506.48	-1.1176E-02
506.84	-1.1159E-02
507.20	-1.0664E-02
507.57	-1.2144E-02
507.93	-9.5866E-03
508.29	-9.1600E-03
508.65	-1.1652E-02
509.01	-9.3747E-03
509.37	-4.7777E-03
509.74	-7.2035E-03
510.10	-1.6493E-02
510.46	-1.5534E-02
510.82	-1.1377E-02
511.18	-9.9782E-03
511.54	-1.5231E-02
511.90	-8.7124E-03
512.27	-1.6183E-02
512.63	-1.5452E-02
512.99	-1.5733E-02
513.35	-1.6148E-02
513.71	-1.4458E-02
514.07	-1.3125E-02
514.43	-1.3253E-02
514.79	-6.5565E-03
515.15	-6.3304E-03
515.52	-1.5216E-02
515.88	-1.5512E-02
516.24	-1.1723E-02
516.60	-1.5456E-02
516.96	-1.2377E-02
517.32	-8.2520E-03
517.68	-8.6989E-03
518.04	-1.0675E-02
518.40	-1.3417E-02
518.76	-1.3247E-02
519.12	-1.3117E-02
519.48	-1.1015E-02
519.84	-1.3725E-02
520.20	-1.3133E-02
520.56	-1.2085E-02
520.92	-1.6798E-02
521.28	-6.3708E-03
521.64	-1.5845E-02
522.00	-7.9410E-03
522.36	-1.1058E-02
522.72	-8.2483E-03
523.08	-1.3395E-02
523.44	-1.3895E-02
523.80	-1.1516E-02
524.16	-1.6525E-02
524.52	-1.0946E-02
524.88	-1.3779E-02
525.24	-1.2401E-02
525.60	-1.6444E-02
525.96	-1.4434E-02
526.32	-1.4814E-02
526.68	-1.2943E-02
527.04	-1.4340E-02
527.40	-1.3053E-02
527.76	-1.6397E-02
528.12	-1.9404E-02
528.48	-1.9749E-02
528.84	-1.4015E-02
529.20	-4.9921E-03
529.56	-1.3150E-02
529.91	-1.9698E-02
530.27	-1.3290E-02
530.63	-1.3942E-02
530.99	-1.0603E-02
531.35	-1.8487E-02
531.71	-1.4369E-02
532.07	-1.0786E-02
532.43	-1.8773E-02
532.79	-2.2861E-02
533.15	-1.5823E-02
533.50	-1.3971E-02
533.86	-1.4588E-02
534.22	-1.1999E-02
534.58	-1.4631E-02
534.94	-7.7204E-03
535.30	-1.0874E-02
535.66	-1.6655E-02
536.01	-1.9974E-02
536.37	-1.7478E-02
536.73	-1.2249E-02
537.09	-1.5831E-02
537.45	-1.3677E-02
537.81	-1.3478E-02
538.16	-1.2468E-02
538.52	-7.4725E-03
538.88	-9.6153E-03
539.24	-1.6330E-02
539.60	-1.1398E-02
539.95	-1.1663E-02
540.31	-1.3221E-02
540.67	-1.2720E-02
541.03	-7.9159E-03
541.38	-7.1705E-03
541.74	-1.1072E-02
542.10	-7.4513E-03
542.46	-4.7854E-03
542.82	-8.4513E-03
543.17	-4.3066E-03
543.53	-7.9573E-03
543.89	-1.6804E-02
544.25	-1.3647E-02
544.60	-7.4230E-03
544.96	-6.9367E-03
545.32	-1.0814E-02
545.67	-1.1034E-02
546.03	-4.5627E-03
546.39	-7.2251E-03
546.75	1.6801E-03
547.10	1.9271E-03
547.46	-9.6016E-04
547.82	-7.2014E-04
548.17	-5.5191E-03
548.53	-1.4095E-02
548.89	-1.1574E-02
549.24	-9.6315E-03
549.60	-7.2471E-03
549.96	-1.3581E-02
550.31	-1.6134E-02
550.67	-1.4051E-02
551.03	-2.0019E-02
551.38	-1.0566E-02
551.74	-8.2704E-03
552.10	-7.0058E-03
552.45	-1.7523E-02
552.81	-1.1610E-02
553.17	-1.3002E-02
553.52	-1.0601E-02
553.88	-1.8106E-02
554.23	-2.2685E-02
554.59	-1.0706E-02
554.95	-5.0887E-03
555.30	-4.3530E-03
555.66	-7.3194E-03
556.02	-1.3107E-02
556.37	-1.1435E-02
556.73	-1.6097E-02
557.08	-1.6836E-02
557.44	-1.5039E-02
557.79	-1.6654E-02
558.15	-1.9832E-02
558.51	-1.6172E-02
558.86	-1.3771E-02
559.22	-1.3766E-02
559.57	-1.6297E-02
559.93	-1.6686E-02
560.28	-1.7804E-02
560.64	-1.5947E-02
560.99	-1.6887E-02
561.35	-1.6533E-02
561.70	-1.0987E-02
562.06	-1.3993E-02
562.41	-1.5944E-02
562.77	-1.7378E-02
563.13	-1.4411E-02
563.48	-1.7769E-02
563.84	-1.7230E-02
564.19	-1.5753E-02
564.54	-1.5556E-02
564.90	-1.7011E-02
565.25	-1.9597E-02
565.61	-1.8736E-02
565.96	-1.8716E-02
566.32	-1.6480E-02
566.67	-1.3398E-02
567.03	-1.1657E-02
567.38	-2.0414E-02
567.74	-1.8644E-02
568.09	-1.2266E-02
568.45	-1.8639E-02
568.80	-2.7605E-02
569.15	-2.4175E-02
569.51	-1.7417E-02
569.86	-1.9956E-02
570.22	-1.4986E-02
570.57	-1.4194E-02
570.93	-1.2359E-02
571.28	-1.6075E-02
571.63	-1.4354E-02
571.99	-2.8738E-02
572.34	-2.8526E-02
572.70	-2.1102E-02
573.05	-1.7509E-02
573.40	-2.4502E-02
573.76	-1.7097E-02
574.11	-1.8392E-02
574.46	-1.7423E-02
574.82	-2.0935E-02
575.17	-1.7125E-02
575.53	-1.7978E-02
575.88	-1.8053E-02
576.23	-1.2866E-02
576.59	-1.6629E-02
576.94	-1.5169E-02
577.29	-1.4409E-02
577.65	-9.7754E-03
578.00	-7.7493E-03
578.35	-1.2878E-02
578.70	-1.6170E-02
579.06	-9.7819E-03
579.41	-1.6801E-02
579.76	-1.7764E-02
580.12	-1.6004E-02
580.47	-1.8422E-02
580.82	-1.4677E-02
581.18	-2.3693E-02
581.53	-2.3110E-02
581.88	-1.7765E-02
582.23	-1.6502E-02
582.59	-1.4532E-02
582.94	-2.0432E-02
583.29	-2.4577E-02
583.64	-2.3899E-02
584.00	-1.6502E-02
584.35	-1.3692E-02
584.70	-2.1707E-02
585.05	-1.6869E-02
585.41	-2.3219E-02
585.76	-2.2835E-02
586.11	-2.2483E-02
586.46	-2.1812E-02
586.81	-2.1874E-02
587.17	-1.7911E-02
587.52	-2.4853E-02
587.87	-2.3462E-02
588.22	-1.9541E-02
588.57	-1.9309E-02
588.93	-2.2905E-02
589.28	-2.9343E-02
589.63	-2.2198E-02
589.98	-1.7808E-02
590.33	-2.7393E-02
590.68	-2.2496E-02
591.04	-2.1569E-02
591.39	-2.6622E-02
591.74	-1.9800E-02
592.09	-2.5384E-02
592.44	-2.3341E-02
592.79	-2.4207E-02
593.14	-2.6786E-02
593.50	-3.1929E-02
593.85	-2.7223E-02
594.20	-2.3408E-02
594.55	-2.1852E-02
594.90	-3.3323E-02
595.25	-3.8866E-02
595.60	-3.3688E-02
595.95	-3.5081E-02
596.30	-3.1901E-02
596.66	-2.7104E-02
597.01	-3.5646E-02
597.36	-3.6419E-02
597.71	-3.2752E-02
598.06	-3.5520E-02
598.41	-3.5753E-02
598.76	-4.3113E-02
599.11	-4.0631E-02
599.46	-4.0576E-02
599.81	-3.7609E-02
600.16	-4.2120E-02
600.51	-3.7721E-02
600.86	-3.3255E-02
601.21	-4.6587E-02
601.56	-4.3723E-02
601.91	-4.4376E-02
602.26	-4.1448E-02
602.61	-3.9681E-02
602.96	-4.5827E-02
603.31	-4.8092E-02
603.66	-4.0745E-02
604.01	-3.9087E-02
604.36	-3.8947E-02
604.71	-4.6567E-02
605.06	-4.2283E-02
605.41	-3.9165E-02
605.76	-4.2856E-02
606.11	-4.4862E-02
606.46	-5.3509E-02
606.81	-4.9777E-02
607.16	-4.4928E-02
607.51	-4.7647E-02
607.86	-5.7844E-02
608.21	-6.5627E-02
608.56	-5.5115E-02
608.91	-5.6627E-02
609.26	-6.1186E-02
609.61	-6.7562E-02
609.95	-6.8798E-02
610.30	-9.1902E-02
610.65	-1.1395E-01
611.00	-1.5179E-01
611.35	-1.9485E-01
611.70	-2.1343E-01
612.05	-1.9923E-01
612.40	-1.8297E-01
612.75	-1.5935E-01
613.09	-1.4774E-01
613.44	-1.2910E-01
613.79	-1.1833E-01
614.14	-1.0940E-01
614.49	-1.0665E-01
614.84	-1.0678E-01
615.19	-9.9895E-02
615.53	-1.0110E-01
615.88	-9.1410E-02
616.23	-8.6360E-02
616.58	-8.1501E-02
616.93	-8.4939E-02
617.28	-7.6078E-02
617.62	-7.2028E-02
617.97	-7.6545E-02
618.32	-7.3981E-02
618.67	-7.2243E-02
619.02	-8.2240E-02
619.36	-8.7863E-02
619.71	-8.1488E-02
620.06	-7.6032E-02
620.41	-7.2930E-02
620.76	-7.2381E-02
621.10	-7.2683E-02
621.45	-7.4546E-02
621.80	-7.7096E-02
622.15	-7.8271E-02
622.49	-7.5530E-02
622.84	-8.2811E-02
623.19	-7.8371E-02
623.54	-7.7674E-02
623.88	-8.1626E-02
624.23	-8.5367E-02
624.58	-8.4651E-02
624.92	-7.7701E-02
625.27	-7.5775E-02
625.62	-7.4065E-02
625.97	-7.3690E-02
626.31	-7.6591E-02
626.66	-7.9130E-02
627.01	-8.4302E-02
627.35	-8.5826E-02
627.70	-7.5183E-02
628.05	-7.7316E-02
628.39	-7.6997E-02
628.74	-7.6867E-02
629.09	-7.7139E-02
629.43	-8.0424E-02
629.78	-8.6587E-02
630.13	-8.9069E-02
630.47	-9.4560E-02
630.82	-1.0190E-01
631.17	-1.0258E-01
631.51	-9.9156E-02
631.86	-1.0649E-01
632.20	-9.4243E-02
632.55	-9.3802E-02
632.90	-8.9759E-02
633.24	-8.7021E-02
633.59	-7.4341E-02
633.94	-7.4561E-02
634.28	-6.9861E-02
634.63	-7.2171E-02
634.97	-7.1627E-02
635.32	-6.9959E-02
635.66	-6.6733E-02
636.01	-7.0359E-02
636.36	-7.7487E-02
636.70	-7.5693E-02
637.05	-7.6907E-02
637.39	-7.6548E-02
637.74	-7.5328E-02
638.08	-7.7449E-02
638.43	-7.5746E-02
638.77	-7.1365E-02
639.12	-8.1222E-02
639.46	-7.5393E-02
639.81	-7.9229E-02
640.15	-7.2039E-02
640.50	-6.9376E-02
640.85	-7.4642E-02
641.19	-7.2311E-02
641.54	-6.0510E-02
641.88	-6.4179E-02
642.22	-6.8850E-02
642.57	-6.6046E-02
642.91	-6.6080E-02
643.26	-7.4756E-02
643.60	-8.1411E-02
643.95	-7.8589E-02
644.29	-7.7634E-02
644.64	-7.0381E-02
644.98	-7.7056E-02
645.33	-7.3614E-02
645.67	-7.4132E-02
646.02	-6.7920E-02
646.36	-8.0120E-02
646.70	-7.7047E-02
647.05	-7.5478E-02
647.39	-7.2177E-02
647.74	-7.2685E-02
648.08	-7.2898E-02
648.42	-7.4737E-02
648.77	-7.4195E-02
649.11	-7.9436E-02
649.46	-7.4422E-02
649.80	-6.9913E-02
650.14	-7.8296E-02
650.49	-8.3843E-02
650.83	-8.5272E-02
651.18	-8.5387E-02
651.52	-7.9043E-02
651.86	-8.6360E-02
652.21	-8.4190E-02
652.55	-7.8929E-02
652.89	-6.7041E-02
653.24	-6.5580E-02
653.58	-7.4521E-02
653.92	-6.6311E-02
654.27	-7.6805E-02
654.61	-8.4197E-02
654.95	-8.9253E-02
655.30	-8.1525E-02
655.64	-8.3854E-02
655.98	-8.0651E-02
656.33	-8.1054E-02
656.67	-6.9073E-02
657.01	-6.4744E-02
657.35	-7.2763E-02
657.70	-6.0946E-02
658.04	-8.0448E-02
658.38	-7.7877E-02
658.73	-7.4760E-02
659.07	-7.3895E-02
659.41	-8.1101E-02
659.75	-8.5337E-02
660.10	-8.3242E-02
660.44	-8.0778E-02
660.78	-9.1241E-02
661.12	-7.5676E-02
661.46	-7.2256E-02
661.81	-7.8319E-02
662.15	-9.7319E-02
662.49	-8.3243E-02
662.83	-1.0024E-01
663.18	-9.8880E-02
663.52	-1.0002E-01
663.86	-8.7764E-02
664.20	-9.4081E-02
664.54	-8.8064E-02
664.88	-8.2832E-02
665.23	-7.7131E-02
665.57	-7.7773E-02
665.91	-7.9443E-02
666.25	-8.3684E-02
666.59	-9.2855E-02
666.93	-8.7866E-02
667.28	-8.1791E-02
667.62	-8.1502E-02
667.96	-8.2914E-02
668.30	-7.7941E-02
668.64	-8.1064E-02
668.98	-9.4022E-02
669.32	-9.3693E-02
669.67	-8.5696E-02
670.01	-9.6605E-02
670.35	-1.0331E-01
670.69	-9.1081E-02
671.03	-8.1609E-02
671.37	-9.4513E-02
671.71	-8.5882E-02
672.05	-8.3481E-02
672.39	-9.1990E-02
672.73	-8.2900E-02
673.07	-8.2643E-02
673.42	-7.6262E-02
673.76	-7.6536E-02
674.10	-9.7621E-02
674.44	-9.2734E-02
674.78	-8.6336E-02
675.12	-9.0547E-02
675.46	-9.1858E-02
675.80	-9.8029E-02
676.14	-8.3877E-02
676.48	-9.2209E-02
676.82	-9.3263E-02
677.16	-9.0023E-02
677.50	-8.8956E-02
677.84	-7.7841E-02
678.18	-7.3719E-02
678.52	-8.1120E-02
678.86	-8.0442E-02
679.20	-8.0701E-02
679.54	-8.6341E-02
679.88	-8.5273E-02
680.22	-8.4829E-02
680.56	-7.3252E-02
680.90	-6.8378E-02
681.24	-7.7150E-02
681.58	-8.0372E-02
681.92	-7.9893E-02
682.26	-7.6119E-02
682.60	-8.1506E-02
682.93	-8.3606E-02
683.27	-8.1604E-02
683.61	-8.2427E-02
683.95	-9.6456E-02
684.29	-9.8507E-02
684.63	-1.0009E-01
684.97	-9.6483E-02
685.31	-9.1478E-02
685.65	-8.6190E-02
685.99	-9.6404E-02
686.33	-1.0372E-01
686.66	-8.1950E-02
687.00	-8.6308E-02
687.34	-9.0295E-02
687.68	-8.9456E-02
688.02	-8.3926E-02
688.36	-8.7324E-02
688.70	-1.0103E-01
689.03	-1.0101E-01
689.37	-8.3046E-02
689.71	-7.9439E-02
690.05	-9.1591E-02
690.39	-7.9896E-02
690.73	-8.1813E-02
691.06	-9.8007E-02
691.40	-9.2867E-02
691.74	-8.7543E-02
692.08	-9.5010E-02
692.42	-9.8425E-02
692.75	-8.8505E-02
693.09	-9.7864E-02
693.43	-1.1180E-01
693.77	-1.0091E-01
694.11	-9.9210E-02
694.44	-9.4969E-02
694.78	-9.1078E-02
695.12	-9.4124E-02
695.46	-9.8786E-02
695.79	-1.0184E-01
696.13	-9.9672E-02
696.47	-1.0357E-01
696.81	-1.0639E-01
697.14	-9.8827E-02
697.48	-9.2425E-02
697.82	-1.0293E-01
698.16	-9.5889E-02
698.49	-9.3623E-02
698.83	-9.5961E-02
699.17	-9.8609E-02
699.50	-7.8450E-02
699.84	-8.2272E-02
700.18	-7.9217E-02
700.51	-9.5677E-02
700.85	-8.3829E-02
701.19	-1.0076E-01
701.52	-8.7814E-02
701.86	-9.7924E-02
702.20	-1.0945E-01
702.53	-1.0780E-01
702.87	-1.1375E-01
703.21	-1.1673E-01
703.54	-1.1250E-01
703.88	-1.0572E-01
704.22	-1.0644E-01
704.55	-1.1629E-01
704.89	-1.0683E-01
705.23	-9.5514E-02
705.56	-8.7310E-02
705.90	-1.0727E-01
706.23	-1.2208E-01
706.57	-1.1376E-01
706.91	-1.3686E-01
707.24	-1.4380E-01
707.58	-1.3326E-01
707.91	-1.2428E-01
708.25	-1.4659E-01
708.58	-1.4325E-01
708.92	-1.5629E-01
709.26	-1.4097E-01
709.59	-1.3191E-01
709.93	-1.2447E-01
710.26	-1.3178E-01
710.60	-1.2539E-01
710.93	-1.2160E-01
711.27	-1.3893E-01
711.60	-1.3127E-01
711.94	-1.3243E-01
712.27	-1.4843E-01
712.61	-1.4065E-01
712.95	-1.5151E-01
713.28	-1.2897E-01
713.62	-1.3701E-01
713.95	-1.3180E-01
714.28	-1.3261E-01
714.62	-1.2795E-01
714.95	-1.1574E-01
715.29	-9.7640E-02
715.62	-1.1012E-01
715.96	-9.7322E-02
716.29	-9.7698E-02
716.63	-1.0845E-01
716.96	-1.1037E-01
717.30	-9.6939E-02
717.63	-9.7645E-02
717.97	-8.7817E-02
718.30	-8.1034E-02
718.63	-8.7227E-02
718.97	-8.3547E-02
719.30	-9.8009E-02
719.64	-1.0119E-01
719.97	-9.4510E-02
720.31	-1.1085E-01
720.64	-1.0879E-01
720.97	-1.1626E-01
721.31	-9.5365E-02
721.64	-1.0525E-01
721.97	-8.2901E-02
722.31	-1.1705E-01
722.64	-1.0693E-01
722.98	-1.0329E-01
723.31	-9.7272E-02
723.64	-1.0811E-01
723.98	-1.1273E-01
724.31	-1.1990E-01
724.64	-1.2454E-01
724.98	-1.0866E-01
725.31	-1.0421E-01
725.64	-1.0925E-01
725.98	-1.1140E-01
726.31	-9.9178E-02
726.64	-9.1605E-02
726.98	-1.1555E-01
727.31	-9.1054E-02
727.64	-9.9323E-02
727.97	-9.0393E-02
728.31	-1.1033E-01
728.64	-8.7752E-02
728.97	-9.2632E-02
729.31	-7.6447E-02
729.64	-9.9262E-02
729.97	-1.1528E-01
730.30	-1.3284E-01
730.64	-1.3662E-01
730.97	-1.0170E-01
731.30	-1.2399E-01
731.63	-1.0256E-01
731.97	-1.1334E-01
732.30	-1.0773E-01
732.63	-1.2195E-01
732.96	-1.2692E-01
733.29	-1.1887E-01
733.63	-1.0392E-01
733.96	-1.1024E-01
734.29	-1.1787E-01
734.62	-1.2988E-01
734.96	-1.1293E-01
735.29	-1.2351E-01
735.62	-1.1493E-01
735.95	-1.0153E-01
736.28	-1.1290E-01
736.61	-1.1275E-01
736.95	-1.1623E-01
737.28	-1.1981E-01
737.61	-1.4146E-01
737.94	-1.2874E-01
738.27	-1.2519E-01
738.60	-1.1387E-01
738.93	-1.1952E-01
739.27	-1.1165E-01
739.60	-1.1753E-01
739.93	-8.6931E-02
740.26	-1.0019E-01
740.59	-1.2736E-01
740.92	-1.3144E-01
741.25	-1.1944E-01
741.58	-1.1753E-01
741.91	-1.2471E-01
742.24	-1.3100E-01
742.58	-1.3355E-01
742.91	-1.2433E-01
743.24	-1.3634E-01
743.57	-1.4513E-01
743.90	-1.3516E-01
744.23	-1.2284E-01
744.56	-1.2321E-01
744.89	-1.2903E-01
745.22	-1.1927E-01
745.55	-1.1926E-01
745.88	-1.5193E-01
746.21	-1.5804E-01
746.54	-1.3183E-01
746.87	-1.2817E-01
747.20	-1.5015E-01
747.53	-1.4044E-01
747.86	-1.4784E-01
748.19	-1.2920E-01
748.52	-1.3757E-01
748.85	-1.4881E-01
749.18	-1.4186E-01
749.51	-1.4363E-01
749.84	-1.6217E-01
750.17	-1.4502E-01
750.50	-1.3718E-01
750.83	-1.1433E-01
751.16	-1.2982E-01
751.49	-1.4460E-01
751.82	-1.4461E-01
752.15	-1.4755E-01
752.48	-1.4358E-01
752.81	-1.2811E-01
753.14	-1.3327E-01
753.46	-1.4833E-01
753.79	-1.6734E-01
754.12	-1.3810E-01
754.45	-1.3573E-01
754.78	-1.2894E-01
755.11	-1.2312E-01
755.44	-1.3564E-01
755.77	-1.0454E-01
756.10	-1.4644E-01
756.42	-1.6390E-01
756.75	-1.6171E-01
757.08	-1.3712E-01
757.41	-1.4258E-01
757.74	-1.3920E-01
758.07	-1.2605E-01
758.40	-1.3950E-01
758.72	-1.4116E-01
759.05	-1.4835E-01
759.38	-1.3575E-01
759.71	-1.4153E-01
760.04	-1.2845E-01
760.37	-1.0653E-01
760.69	-9.0923E-02
761.02	-8.6098E-02
761.35	-9.9239E-02
761.68	-1.1470E-01
762.01	-9.8079E-02
762.33	-1.1737E-01
762.66	-1.2091E-01
762.99	-1.2537E-01
763.32	-9.9678E-02
763.64	-1.0280E-01
763.97	-1.0973E-01
764.30	-1.0568E-01
764.63	-1.1252E-01
764.95	-1.0201E-01
765.28	-1.3540E-01
765.61	-1.1772E-01
765.94	-1.0326E-01
766.26	-9.9749E-02
766.59	-9.8599E-02
766.92	-1.5823E-01
767.25	-1.5406E-01
767.57	-1.2720E-01
767.90	-1.5531E-01
768.23	-1.4534E-01
768.55	-1.4493E-01
768.88	-1.5388E-01
769.21	-1.4268E-01
769.53	-1.6755E-01
769.86	-1.5524E-01
770.19	-1.5097E-01
770.51	-1.8470E-01
770.84	-1.4571E-01
771.17	-1.5673E-01
771.49	-1.4043E-01
771.82	-1.5599E-01
772.15	-1.9002E-01
772.47	-1.6732E-01
772.80	-1.9851E-01
773.13	-1.6408E-01
773.45	-1.9140E-01
773.78	-1.7301E-01
774.10	-1.5004E-01
774.43	-1.5143E-01
774.76	-1.5198E-01
775.08	-1.7805E-01
775.41	-1.6509E-01
775.73	-1.6300E-01
776.06	-1.8012E-01
776.38	-2.0039E-01
776.71	-1.8186E-01
777.04	-1.7221E-01
777.36	-1.7084E-01
777.69	-1.8117E-01
778.01	-1.5423E-01
778.34	-1.5443E-01
778.66	-1.5184E-01
778.99	-1.4913E-01
779.31	-1.7919E-01
779.64	-1.7543E-01
779.96	-1.5542E-01
780.29	-1.8467E-01
780.61	-1.8644E-01
780.94	-1.6210E-01
781.26	-1.5516E-01
781.59	-1.5977E-01
781.91	-1.7819E-01
782.24	-1.7215E-01
782.56	-1.7140E-01
782.89	-1.5753E-01
783.21	-1.6788E-01
783.54	-1.8829E-01
783.86	-1.7042E-01
784.19	-1.8607E-01
784.51	-1.5732E-01
784.84	-1.7612E-01
785.16	-1.7235E-01
785.48	-1.7880E-01
785.81	-1.4458E-01
786.13	-1.6942E-01
786.46	-2.1905E-01
786.78	-1.9705E-01
787.11	-2.0175E-01
787.43	-1.7061E-01
787.75	-1.8135E-01
788.08	-2.1349E-01
788.40	-1.8031E-01
788.73	-1.9414E-01
789.05	-1.5713E-01
789.37	-2.1250E-01
789.70	-2.1988E-01
790.02	-1.8440E-01
790.34	-1.9425E-01
790.67	-1.7413E-01
790.99	-1.7543E-01
791.31	-1.6536E-01
791.64	-1.7113E-01
791.96	-1.6413E-01
792.28	-1.8787E-01
792.61	-1.7568E-01
792.93	-1.8118E-01
793.25	-1.5992E-01
793.58	-1.3391E-01
793.90	-1.4945E-01
794.22	-1.3786E-01
794.55	-1.7815E-01
794.87	-1.7206E-01
795.19	-1.9543E-01
795.51	-1.5828E-01
795.84	-1.6694E-01
796.16	-1.4898E-01
796.48	-1.9146E-01
796.80	-1.6423E-01
797.13	-1.5760E-01
797.45	-1.6489E-01
797.77	-1.7095E-01
798.09	-1.6600E-01
798.42	-1.5692E-01
798.74	-1.7627E-01
799.06	-1.5521E-01
799.38	-1.9660E-01
799.71	-1.7368E-01
800.03	-1.8240E-01
800.35	-1.4158E-01
800.67	-1.4221E-01
800.99	-1.6014E-01
801.32	-1.3531E-01
801.64	-1.7502E-01
801.96	-1.7238E-01
802.28	-1.6607E-01
802.60	-1.9691E-01
802.92	-1.8514E-01
803.25	-2.1054E-01
803.57	-1.9929E-01
803.89	-1.5413E-01
804.21	-1.7768E-01
804.53	-1.6765E-01
804.85	-1.4082E-01
805.17	-1.8247E-01
805.50	-2.1243E-01
805.82	-1.7780E-01
806.14	-1.5199E-01
806.46	-1.9557E-01
806.78	-2.0320E-01
807.10	-1.9750E-01
807.42	-2.0084E-01
807.74	-1.6904E-01
808.06	-1.6926E-01
808.38	-2.0041E-01
808.70	-1.9776E-01
809.03	-1.6135E-01
809.35	-1.6548E-01
809.67	-1.7228E-01
809.99	-1.8502E-01
810.31	-1.9956E-01
810.63	-1.6228E-01
810.95	-1.4987E-01
811.27	-1.5052E-01
811.59	-1.6407E-01
811.91	-1.8524E-01
812.23	-2.1496E-01
812.55	-1.7946E-01
812.87	-2.0995E-01
813.19	-2.2289E-01
813.51	-2.0155E-01
813.83	-1.4625E-01
814.15	-1.5986E-01
814.47	-1.6734E-01
814.79	-1.6338E-01
815.11	-1.4327E-01
815.43	-1.7340E-01
815.75	-1.6257E-01
816.07	-1.2826E-01
816.39	-2.0555E-01
816.71	-1.7676E-01
817.03	-1.7722E-01
817.34	-1.5907E-01
817.66	-1.6829E-01
817.98	-1.7199E-01
818.30	-1.7423E-01
818.62	-2.0159E-01
818.94	-1.8804E-01
819.26	-1.4298E-01
819.58	-1.3908E-01
819.90	-1.6796E-01
820.22	-1.9915E-01
820.54	-1.9444E-01
820.85	-1.8137E-01
821.17	-1.9305E-01
821.49	-1.5250E-01
821.81	-1.9723E-01
822.13	-2.2079E-01
822.45	-2.0032E-01
822.77	-2.0434E-01
823.08	-1.6060E-01
823.40	-2.0201E-01
823.72	-1.6147E-01
824.04	-1.9145E-01
824.36	-1.6318E-01
824.68	-1.6004E-01
824.99	-1.8725E-01
825.31	-2.1146E-01
825.63	-1.8405E-01
825.95	-1.9789E-01
826.27	-2.2443E-01
826.58	-1.9778E-01
826.90	-2.5536E-01
827.22	-2.1239E-01
827.54	-1.7558E-01
827.85	-1.2622E-01
828.17	-1.6634E-01
828.49	-2.1630E-01
828.81	-2.0919E-01
829.12	-1.7808E-01
829.44	-2.0121E-01
829.76	-1.9421E-01
830.08	-1.6029E-01
830.39	-2.2993E-01
830.71	-1.8420E-01
831.03	-2.2461E-01
831.35	-2.1690E-01
831.66	-1.7280E-01
831.98	-1.8827E-01
832.30	-2.4311E-01
832.61	-2.1866E-01
832.93	-1.9882E-01
833.25	-2.2912E-01
833.56	-2.4560E-01
833.88	-2.1714E-01
834.20	-2.2874E-01
834.51	-1.8571E-01
834.83	-2.0062E-01
835.15	-2.0912E-01
835.46	-1.7417E-01
835.78	-2.1258E-01
836.10	-2.1114E-01
836.41	-2.2091E-01
836.73	-2.1609E-01
837.04	-2.3763E-01
837.36	-2.0289E-01
837.68	-1.6348E-01
837.99	-1.9986E-01
838.31	-2.2028E-01
838.62	-2.0829E-01
838.94	-1.8662E-01
839.26	-1.6838E-01
839.57	-1.7082E-01
839.89	-2.0547E-01
840.20	-2.1178E-01
840.52	-1.6750E-01
840.83	-1.6602E-01
841.15	-2.4334E-01
841.47	-2.4089E-01
841.78	-2.8009E-01
842.10	-2.3139E-01
842.41	-2.1798E-01
842.73	-1.8585E-01
843.04	-2.1212E-01
843.36	-2.5711E-01
843.67	-1.9827E-01
843.99	-2.5300E-01
844.30	-2.5975E-01
844.62	-2.9157E-01
844.93	-2.4692E-01
845.25	-2.6237E-01
845.56	-2.2417E-01
845.88	-2.2623E-01
846.19	-2.3416E-01
846.51	-2.2418E-01
846.82	-1.9162E-01
847.14	-2.4161E-01
847.45	-2.3809E-01
847.76	-2.0658E-01
848.08	-2.0225E-01
848.39	-2.4898E-01
848.71	-2.2927E-01
849.02	-2.4021E-01
849.34	-2.6796E-01
849.65	-2.1791E-01
849.96	-2.0802E-01
850.28	-1.7185E-01
850.59	-2.7034E-01
850.91	-3.0519E-01
851.22	-2.7136E-01
851.53	-2.4214E-01
851.85	-2.7393E-01
852.16	-1.9888E-01
852.47	-2.5375E-01
852.79	-2.0351E-01
853.10	-1.8618E-01
853.41	-1.8141E-01
853.73	-2.2453E-01
854.04	-2.4096E-01
854.36	-1.9717E-01
854.67	-2.5428E-01
854.98	-2.6003E-01
855.29	-3.0615E-01
855.61	-3.1146E-01
855.92	-2.9132E-01
856.23	-2.2672E-01
856.55	-2.6688E-01
856.86	-2.7360E-01
857.17	-2.6778E-01
857.49	-1.8830E-01
857.80	-2.3738E-01
858.11	-2.4122E-01
858.42	-1.9323E-01
858.74	-2.1029E-01
859.05	-2.7415E-01
859.36	-3.2482E-01
859.67	-2.5264E-01
859.99	-2.6361E-01
860.30	-2.7656E-01
860.61	-2.4580E-01
860.92	-2.7567E-01
861.24	-2.7871E-01
861.55	-2.6222E-01
861.86	-3.4002E-01
862.17	-2.7641E-01
862.48	-2.6243E-01
862.80	-2.8284E-01
863.11	-2.6358E-01
863.42	-2.3070E-01
863.73	-2.6037E-01
864.04	-2.9803E-01
864.35	-2.2694E-01
864.67	-2.9516E-01
864.98	-3.1724E-01
865.29	-2.8510E-01
865.60	-2.9108E-01
865.91	-3.2867E-01
866.22	-2.6250E-01
866.53	-2.8595E-01
866.85	-3.2282E-01
867.16	-3.1280E-01
867.47	-2.9958E-01
867.78	-3.3595E-01
868.09	-2.7703E-01
868.40	-2.6936E-01
868.71	-3.3701E-01
869.02	-3.1166E-01
869.33	-3.2976E-01
869.65	-3.3819E-01
869.96	-4.2525E-01
870.27	-3.2935E-01
870.58	-2.6822E-01
870.89	-2.7175E-01
871.20	-2.1963E-01
871.51	-2.5959E-01
871.82	-2.5356E-01
872.13	-3.4816E-01
872.44	-3.2831E-01
872.75	-2.8417E-01
873.06	-2.7349E-01
873.37	-3.3439E-01
873.68	-2.9133E-01
873.99	-2.3692E-01
874.30	-2.7783E-01
874.61	-2.9905E-01
874.92	-3.1943E-01
875.23	-3.1026E-01
875.54	-4.1275E-01
875.85	-3.6657E-01
876.16	-3.8432E-01
876.47	-3.1184E-01
876.78	-2.5975E-01
877.09	-3.0345E-01
877.40	-2.5774E-01
877.71	-3.7292E-01
878.02	-3.9144E-01
878.33	-3.8070E-01
878.64	-4.1153E-01
878.94	-4.3029E-01
879.25	-3.8829E-01
879.56	-3.9182E-01
879.87	-3.8168E-01
880.18	-3.8074E-01
880.49	-2.8704E-01
880.80	-3.1752E-01
881.11	-3.1673E-01
881.42	-4.1434E-01
881.72	-3.9662E-01
882.03	-3.1440E-01
882.34	-3.8283E-01
882.65	-3.8167E-01
882.96	-3.3067E-01
883.27	-3.5746E-01
883.58	-3.6279E-01
883.88	-2.5665E-01
884.19	-4.7378E-01
884.50	-3.3535E-01
884.81	-3.0034E-01
885.12	-4.5819E-01
885.43	-3.5986E-01
885.73	-3.0101E-01
886.04	-3.6509E-01
886.35	-4.4165E-01
886.66	-4.5853E-01
886.97	-4.0771E-01
887.27	-3.8746E-01
887.58	-3.8064E-01
887.89	-4.2450E-01
888.20	-4.7967E-01
888.50	-4.2249E-01
888.81	-3.5333E-01
889.12	-3.7466E-01
889.43	-3.9114E-01
889.73	-3.4627E-01
890.04	-4.1154E-01
890.35	-4.0399E-01
890.66	-2.5322E-01
890.96	-4.0957E-01
891.27	-3.8036E-01
891.58	-3.8155E-01
891.88	-3.1507E-01
892.19	-4.3897E-01
892.50	-3.4815E-01
892.80	-4.9209E-01
893.11	-4.4471E-01
893.42	-4.6466E-01
893.72	-4.5201E-01
894.03	-4.1990E-01
894.34	-3.8279E-01
894.64	-4.0722E-01
894.95	-4.6885E-01
895.26	-4.9528E-01
895.56	-4.1302E-01
895.87	-3.3312E-01
896.18	-3.7051E-01
896.48	-2.8449E-01
896.79	-2.3526E-01
897.09	-3.8653E-01
897.40	-3.4332E-01
897.71	-3.3074E-01
898.01	-3.5425E-01
898.32	-3.2103E-01
898.62	-3.3008E-01
898.93	-2.5307E-01
899.24	-2.4890E-01
899.54	-3.8740E-01
899.85	-3.3528E-01
900.15	-3.2898E-01
900.46	-3.4767E-01
900.76	-3.5782E-01
901.07	-3.7183E-01
901.37	-4.1371E-01
901.68	-4.6378E-01
901.99	-4.9939E-01
902.29	-5.0526E-01
902.60	-4.7493E-01
902.90	-3.8436E-01
903.21	-3.9675E-01
903.51	-5.1226E-01
903.82	-4.7296E-01
904.12	-5.2760E-01
904.43	-5.0610E-01
904.73	-3.5726E-01
905.03	-3.8385E-01
905.34	-4.0317E-01
905.64	-4.5089E-01
905.95	-4.3415E-01
906.25	-3.8406E-01
906.56	-3.8202E-01
906.86	-4.1240E-01
907.17	-3.3120E-01
907.47	-3.1050E-01
907.78	-4.6759E-01
908.08	-5.4733E-01
908.38	-5.3940E-01
908.69	-4.5378E-01
908.99	-2.6745E-01
909.30	-2.5568E-01
909.60	-4.2491E-01
909.90	-3.6643E-01
910.21	-4.0987E-01
910.51	-4.6817E-01
910.81	-3.9729E-01
911.12	-4.0994E-01
911.42	-3.4255E-01
911.73	-2.1381E-01
912.03	-3.3134E-01
912.33	-5.6911E-01
912.64	-3.9965E-01
912.94	-4.6825E-01
913.24	-4.4752E-01
913.55	-3.9951E-01
913.85	-4.7251E-01
914.15	-4.0032E-01
914.45	-3.0862E-01
914.76	-4.3147E-01
915.06	-4.3852E-01
915.36	-4.1720E-01
915.67	-5.5435E-01
915.97	-4.6912E-01
916.27	-4.5508E-01
916.57	-3.2687E-01
916.88	-3.6861E-01
917.18	-4.2922E-01
917.48	-2.7055E-01
917.78	-4.7792E-01
918.09	-4.7654E-01
918.39	-3.3525E-01
918.69	-3.9565E-01
918.99	-4.5017E-01
919.30	-3.5457E-01
919.60	-4.1547E-01
919.90	-5.5681E-01
920.20	-5.6420E-01
920.50	-4.6734E-01
920.81	-5.0652E-01
921.11	-4.6963E-01
921.41	-2.7811E-01
921.71	-3.9924E-01
922.01	-6.1167E-01
922.32	-6.0564E-01
922.62	-5.0332E-01
922.92	-5.1190E-01
923.22	-4.1043E-01
923.52	-4.7992E-01
923.82	-4.4158E-01
924.12	-5.1172E-01
924.43	-4.6271E-01
924.73	-5.5490E-01
925.03	-6.1289E-01
925.33	-6.0086E-01
925.63	-5.1003E-01
925.93	-5.5278E-01
926.23	-6.1106E-01
926.53	-6.0260E-01
926.83	-4.5095E-01
927.13	-5.4689E-01
927.44	-3.2785E-01
927.74	-2.8365E-01
928.04	-4.6389E-01
928.34	-5.3375E-01
928.64	-5.0478E-01
928.94	-6.2122E-01
929.24	-8.1415E-01
929.54	-4.9504E-01
929.84	-4.1707E-01
930.14	-4.1106E-01
930.44	-4.6717E-01
930.74	-5.5085E-01
931.04	-5.9502E-01
931.34	-7.2316E-01
931.64	-6.6322E-01
931.94	-8.5607E-01
932.24	-7.5553E-01
932.54	-4.9317E-01
932.84	-6.9193E-01
933.14	-6.6561E-01
933.44	-6.7281E-01
933.74	-7.3087E-01
934.04	-6.6194E-01
934.34	-6.2173E-01
934.64	-7.0716E-01
934.94	-8.9411E-01
935.24	-9.8899E-01
935.54	-7.7738E-01
935.83	-8.3942E-01
936.13	-5.1414E-01
936.43	-6.3846E-01
936.73	-7.0027E-01
937.03	-6.3815E-01
937.33	-5.9692E-01
937.63	-8.3405E-01
937.93	-7.7978E-01
938.23	-7.1629E-01
938.53	-7.9376E-01
938.82	-9.0100E-01
939.12	-1.0239E00
939.42	-1.0358E00
939.72	-9.3319E-01
940.02	-7.6050E-01
940.32	-8.0891E-01
940.62	-1.0677E00
940.91	-1.2834E00
941.21	-1.0985E00
941.51	-8.1848E-01
941.81	-7.5286E-01
942.11	-8.2500E-01
942.40	-9.7918E-01
942.70	-8.5108E-01
943.00	-1.2132E00
943.30	-1.0766E00
943.60	-1.3556E00
943.89	-1.2468E00
944.19	-8.6411E-01
944.49	-1.1004E00
944.79	-1.5143E00
945.08	-1.3293E00
945.38	-1.4472E00
945.68	-1.0459E00
945.98	-1.1806E00
946.27	-1.3505E00
946.57	-1.0688E00
946.87	-1.5200E00
947.17	-1.1472E00
947.46	-1.3118E00
947.76	-1.0466E00
948.06	-1.1324E00
948.35	-1.1688E00
948.65	-1.4197E00
948.95	-1.3939E00
949.24	-1.5912E00
949.54	-1.6014E00
949.84	-1.1059E00
950.13	-1.1792E00
950.43	-1.0409E00
950.73	-1.0349E00
951.02	-1.1476E00
951.32	-1.3596E00
951.62	-1.2136E00
951.91	-1.1999E00
952.21	-1.6133E00
952.51	-1.1548E00
952.80	-9.7270E-01
953.10	-1.2102E00
953.39	-1.2612E00
953.69	-9.8796E-01
953.99	-1.0091E00
954.28	-1.1492E00
954.58	-1.2442E00
954.87	-1.0652E00
955.17	-1.2140E00
955.46	-8.4200E-01
955.76	-9.1520E-01
956.06	-1.1062E00
956.35	-1.0019E00
956.65	-8.1696E-01
956.94	-8.9795E-01
957.24	-1.1927E00
957.53	-1.0888E00
957.83	-1.3130E00
958.12	-1.3844E00
958.42	-1.0106E00
958.71	-1.2021E00
959.01	-1.1752E00
959.30	-1.0129E00
959.60	-1.0573E00
959.89	-1.3176E00
960.19	-1.0164E00
960.48	-9.0098E-01
960.78	-7.3739E-01
961.07	-6.7569E-01
961.37	-1.0610E00
961.66	-9.7417E-01
961.95	-7.7172E-01
962.25	-7.1369E-01
962.54	-1.2196E00
962.84	-9.4666E-01
963.13	-1.2150E00
963.43	-1.2550E00
963.72	-1.4887E00
964.01	-1.1261E00
964.31	-1.4459E00
964.60	-1.2587E00
964.90	-1.1631E00
965.19	-8.8463E-01
965.48	-1.0773E00
965.78	-8.2669E-01
966.07	-1.0871E00
966.36	-9.6766E-01
966.66	-1.4161E00
966.95	-1.2607E00
967.25	-1.2965E00
967.54	-1.2690E00
967.83	-1.2897E00
968.13	-1.2325E00
968.42	-1.3929E00
968.71	-1.0960E00
969.00	-9.8037E-01
969.30	-1.4076E00
969.59	-1.4149E00
969.88	-1.2716E00
970.18	-1.5026E00
970.47	-1.6566E00
970.76	-1.8248E00
971.05	-1.3793E00
971.35	-1.3129E00
971.64	-1.4045E00
971.93	-1.2607E00
972.23	-1.7671E00
972.52	-1.6044E00
972.81	-1.4653E00
973.10	-1.5049E00
973.39	-1.6352E00
973.69	-1.6768E00
973.98	-1.4664E00
974.27	-1.7141E00
974.56	-1.7023E00
974.86	-1.4923E00
975.15	-1.6483E00
975.44	-1.4683E00
975.73	-1.8996E00
976.02	-1.8569E00
976.31	-1.2666E00
976.61	-1.0744E00
976.90	-1.0431E00
977.19	-1.5956E00
977.48	-1.8737E00
977.77	-1.2259E00
978.06	-1.1853E00
978.35	-1.0902E00
978.65	-1.6512E00
978.94	-1.6236E00
979.23	-1.5435E00
979.52	-1.5150E00
979.81	-1.6376E00
980.10	-1.6520E00
980.39	-1.8436E00
980.68	-2.0843E00
980.97	-1.8726E00
981.27	-1.6636E00
981.56	-1.4389E00
981.85	-1.0749E00
982.14	-1.9507E00
982.43	-1.9580E00
982.72	-1.6196E00
983.01	-1.6599E00
983.30	-1.4352E00
983.59	-1.6119E00
983.88	-1.9081E00
984.17	-1.9056E00
984.46	-1.6054E00
984.75	-1.7176E00
985.04	-1.2474E00
985.33	-1.4049E00
985.62	-2.2115E00
985.91	-2.3028E00
986.20	-1.7226E00
986.49	-2.0690E00
986.78	-2.0416E00
987.07	-2.2989E00
987.36	-1.8901E00
987.65	-1.3042E00
987.94	-1.7832E00
988.23	-1.9055E00
988.52	-2.0345E00
988.81	-1.9556E00
989.10	-2.2258E00
989.38	-2.1463E00
989.67	-1.6889E00
989.96	-2.5605E00
990.25	-1.8652E00
990.54	-1.9107E00
990.83	-1.9978E00
991.12	-2.0230E00
991.41	-1.8455E00
991.70	-1.6616E00
991.99	-2.0688E00
992.27	-1.7525E00
992.56	-2.3266E00
992.85	-2.1997E00
993.14	-1.9705E00
993.43	-2.3263E00
993.72	-2.4989E00
994.00	-2.9417E00
994.29	-2.2455E00
994.58	-2.2940E00
994.87	-2.6959E00
995.16	-2.5991E00
995.45	-2.2797E00
995.73	-2.3781E00
996.02	-1.6104E00
996.31	-2.7993E00
996.60	-3.1034E00
996.89	-3.2677E00
997.17	-2.9935E00
997.46	-3.6617E00
997.75	-2.7361E00
998.04	-1.9990E00
998.32	-1.8211E00
998.61	-1.9872E00
998.90	-2.9632E00
999.19	-2.6727E00
999.47	-2.6197E00
999.76	-2.8138E00
1000.05	-2.7859E00
1000.33	-2.5948E00
1000.62	-2.6969E00
1000.91	-2.7816E00
1001.19	-2.9103E00
1001.48	-2.9682E00
1001.77	-3.2328E00
1002.06	-3.2508E00
1002.34	-3.5006E00
1002.63	-3.7835E00
1002.92	-2.4988E00
1003.20	-2.9196E00
1003.49	-3.3098E00
1003.77	-3.1367E00
1004.06	-3.0161E00
1004.35	-2.9800E00
1004.63	-4.0915E00
1004.92	-3.6056E00
1005.21	-3.8160E00
1005.49	-4.5612E00
1005.78	-3.4177E00
1006.06	-3.8495E00
1006.35	-3.5191E00
1006.64	-3.0120E00
1006.92	-3.0465E00
1007.21	-2.8752E00
1007.49	-2.4082E00
1007.78	-3.3475E00
1008.06	-3.6881E00
1008.35	-4.0524E00
1008.64	-3.9176E00
1008.92	-5.6599E00
1009.21	-3.9516E00
1009.49	-3.7226E00
1009.78	-3.8151E00
1010.06	-3.8046E00
1010.35	-4.1588E00
1010.63	-3.7589E00
1010.92	-4.0247E00
1011.20	-3.8932E00
1011.49	-5.5033E00
1011.77	-4.6932E00
1012.06	-5.2777E00
1012.34	-5.0218E00
1012.63	-5.3497E00
1012.91	-4.4131E00
1013.20	-5.4379E00
1013.48	-3.5679E00
1013.76	-4.2401E00
1014.05	-4.3427E00
1014.33	-3.9584E00
1014.62	-6.0870E00
1014.90	-4.6982E00
1015.19	-4.6300E00
1015.47	-5.4294E00
1015.75	-5.5780E00
1016.04	-7.0637E00
1016.32	-6.0957E00
1016.61	-3.8590E00
1016.89	-7.0323E00
1017.17	-6.6261E00
1017.46	-6.2925E00
1017.74	-4.3377E00
1018.02	-6.6927E00
1018.31	-7.6213E00
1018.59	-7.4941E00
1018.87	-5.7039E00
1019.16	-6.2809E00
1019.44	-5.0938E00
1019.72	-6.4057E00
1020.01	-7.5887E00
1020.29	-7.2437E00
1020.57	-5.7033E00
1020.86	-6.2925E00
1021.14	-5.7571E00
1021.42	-5.1387E00
1021.71	-5.2812E00
1021.99	-6.3240E00
1022.27	-8.1473E00
1022.55	-7.7073E00
1022.84	-5.9964E00
1023.12	-9.3963E00
1023.40	-6.9339E00
1023.68	-7.8877E00
1023.97	-8.4590E00
1024.25	-6.9742E00
1024.53	-7.3082E00
1024.81	-7.3082E00
>>>>>End Processed Spectral Data<<<<<
