SpectraSuite Data File
++++++++++++++++++++++++++++++++++++
Date: Wed Oct 30 14:51:59 GMT 2013
User: WadeLab
Dark Spectrum Present: Yes
Reference Spectrum Present: No
Number of Sampled Component Spectra: 1
Spectrometers: USB2G15413
Integration Time (usec): 19000 (USB2G15413)
Spectra Averaged: 20 (USB2G15413)
Boxcar Smoothing: 0 (USB2G15413)
Correct for Electrical Dark: No (USB2G15413)
Strobe/Lamp Enabled: No (USB2G15413)
Correct for Detector Non-linearity: No (USB2G15413)
Correct for Stray Light: No (USB2G15413)
Number of Pixels in Processed Spectrum: 2048
>>>>>Begin Processed Spectral Data<<<<<
340.56	-0.0000E00
340.94	-0.0000E00
341.32	-0.0000E00
341.70	-0.0000E00
342.08	-0.0000E00
342.46	-0.0000E00
342.84	-0.0000E00
343.22	-0.0000E00
343.60	-0.0000E00
343.98	-0.0000E00
344.36	-0.0000E00
344.74	-0.0000E00
345.12	-0.0000E00
345.50	-0.0000E00
345.88	-0.0000E00
346.26	-0.0000E00
346.64	-0.0000E00
347.02	-0.0000E00
347.40	-0.0000E00
347.78	-0.0000E00
348.16	-0.0000E00
348.54	-0.0000E00
348.92	-0.0000E00
349.30	-0.0000E00
349.68	-6.6173E-01
350.06	-2.6200E-01
350.43	-2.0493E-01
350.81	-2.6879E-01
351.19	-1.6363E-01
351.57	-1.4342E-01
351.95	-1.9157E-01
352.33	-1.4070E-01
352.71	-1.1781E-01
353.09	-1.4581E-01
353.47	-1.2799E-01
353.84	-1.2263E-01
354.22	-1.3431E-01
354.60	-1.3640E-01
354.98	-1.3771E-01
355.36	-1.3047E-01
355.74	-1.4517E-01
356.12	-1.4212E-01
356.50	-1.1378E-01
356.87	-1.9935E-01
357.25	-1.2189E-01
357.63	-1.0662E-01
358.01	-1.1945E-01
358.39	-1.6719E-01
358.77	-1.3669E-01
359.14	-1.6910E-01
359.52	-2.0786E-01
359.90	-1.6554E-01
360.28	-1.3983E-01
360.66	-1.6661E-01
361.03	-1.4955E-01
361.41	-1.5933E-01
361.79	-1.5516E-01
362.17	-1.6864E-01
362.55	-1.6708E-01
362.92	-1.6174E-01
363.30	-1.5790E-01
363.68	-1.3188E-01
364.06	-1.1953E-01
364.44	-1.4173E-01
364.81	-9.5383E-02
365.19	-1.2916E-01
365.57	-1.1457E-01
365.95	-1.0055E-01
366.32	-1.1995E-01
366.70	-1.4637E-01
367.08	-1.3698E-01
367.46	-1.0820E-01
367.83	-1.2121E-01
368.21	-1.2410E-01
368.59	-9.5210E-02
368.96	-1.2131E-01
369.34	-1.6810E-01
369.72	-1.5427E-01
370.10	-1.6958E-01
370.47	-1.0257E-01
370.85	-1.0220E-01
371.23	-1.1512E-01
371.60	-8.4978E-02
371.98	-1.0770E-01
372.36	-1.0067E-01
372.73	-1.0917E-01
373.11	-1.1871E-01
373.49	-1.1919E-01
373.86	-1.2036E-01
374.24	-1.4254E-01
374.62	-1.1108E-01
374.99	-1.0560E-01
375.37	-9.1682E-02
375.75	-9.1889E-02
376.12	-1.0977E-01
376.50	-6.7361E-02
376.88	-9.0035E-02
377.25	-9.7309E-02
377.63	-1.3144E-01
378.01	-1.2272E-01
378.38	-1.1440E-01
378.76	-1.0113E-01
379.13	-1.1876E-01
379.51	-1.0125E-01
379.89	-1.0918E-01
380.26	-1.0351E-01
380.64	-9.7836E-02
381.01	-1.0368E-01
381.39	-1.0429E-01
381.77	-1.0990E-01
382.14	-1.1582E-01
382.52	-9.8412E-02
382.89	-9.3055E-02
383.27	-6.0684E-02
383.65	-7.5899E-02
384.02	-9.4626E-02
384.40	-1.0691E-01
384.77	-1.0889E-01
385.15	-1.0864E-01
385.52	-8.6553E-02
385.90	-8.6300E-02
386.27	-9.4584E-02
386.65	-6.7694E-02
387.02	-9.5652E-02
387.40	-9.8293E-02
387.78	-8.3966E-02
388.15	-9.5147E-02
388.53	-9.5427E-02
388.90	-8.7771E-02
389.28	-6.6977E-02
389.65	-7.0000E-02
390.03	-9.2979E-02
390.40	-8.0559E-02
390.78	-9.6357E-02
391.15	-9.2296E-02
391.53	-8.1979E-02
391.90	-8.6448E-02
392.28	-6.3422E-02
392.65	-6.9287E-02
393.02	-5.9842E-02
393.40	-8.2157E-02
393.77	-7.2225E-02
394.15	-5.5915E-02
394.52	-5.1562E-02
394.90	-6.1540E-02
395.27	-6.6941E-02
395.65	-6.9100E-02
396.02	-9.0308E-02
396.39	-8.2198E-02
396.77	-8.3767E-02
397.14	-6.2839E-02
397.52	-6.6147E-02
397.89	-7.1803E-02
398.27	-7.4864E-02
398.64	-7.8406E-02
399.01	-7.4665E-02
399.39	-9.2939E-02
399.76	-8.1536E-02
400.14	-6.7280E-02
400.51	-9.0736E-02
400.88	-8.7509E-02
401.26	-7.0309E-02
401.63	-5.9060E-02
402.00	-7.4626E-02
402.38	-8.1707E-02
402.75	-6.0217E-02
403.13	-5.7869E-02
403.50	-6.6219E-02
403.87	-5.1348E-02
404.25	-4.8904E-02
404.62	-5.3881E-02
404.99	-5.5360E-02
405.37	-4.0585E-02
405.74	-4.2557E-02
406.11	-6.8099E-02
406.49	-5.1974E-02
406.86	-5.5994E-02
407.23	-7.0991E-02
407.61	-4.3441E-02
407.98	-5.2939E-02
408.35	-6.4530E-02
408.72	-6.9663E-02
409.10	-6.5759E-02
409.47	-7.5373E-02
409.84	-5.1095E-02
410.22	-5.5826E-02
410.59	-5.2151E-02
410.96	-4.7017E-02
411.33	-4.3299E-02
411.71	-4.4308E-02
412.08	-6.4353E-02
412.45	-7.3138E-02
412.83	-5.0381E-02
413.20	-4.9037E-02
413.57	-4.5703E-02
413.94	-4.6284E-02
414.32	-5.3195E-02
414.69	-5.5413E-02
415.06	-4.1787E-02
415.43	-4.5844E-02
415.80	-4.2354E-02
416.18	-4.5897E-02
416.55	-5.1531E-02
416.92	-4.7343E-02
417.29	-5.8215E-02
417.66	-5.6227E-02
418.04	-4.6900E-02
418.41	-4.3801E-02
418.78	-3.6041E-02
419.15	-3.0267E-02
419.52	-3.7520E-02
419.90	-4.8225E-02
420.27	-4.5065E-02
420.64	-4.0569E-02
421.01	-4.1790E-02
421.38	-4.1706E-02
421.75	-4.6247E-02
422.13	-3.6743E-02
422.50	-3.9816E-02
422.87	-4.4149E-02
423.24	-4.6305E-02
423.61	-4.7690E-02
423.98	-5.4854E-02
424.35	-4.4351E-02
424.73	-3.9727E-02
425.10	-3.9662E-02
425.47	-4.6756E-02
425.84	-3.5599E-02
426.21	-4.9998E-02
426.58	-3.7960E-02
426.95	-3.2077E-02
427.32	-4.4466E-02
427.69	-4.5588E-02
428.06	-2.9534E-02
428.44	-3.2580E-02
428.81	-3.5132E-02
429.18	-2.8744E-02
429.55	-2.9455E-02
429.92	-3.0712E-02
430.29	-3.9234E-02
430.66	-3.8848E-02
431.03	-3.7453E-02
431.40	-4.6542E-02
431.77	-4.0894E-02
432.14	-4.1532E-02
432.51	-4.7383E-02
432.88	-5.0695E-02
433.25	-4.0859E-02
433.62	-4.5661E-02
433.99	-3.8909E-02
434.36	-2.7986E-02
434.73	-3.2688E-02
435.10	-3.4303E-02
435.47	-4.0861E-02
435.84	-2.8614E-02
436.21	-2.4794E-02
436.58	-2.7466E-02
436.95	-3.9617E-02
437.32	-3.3486E-02
437.69	-3.4171E-02
438.06	-4.0775E-02
438.43	-3.4770E-02
438.80	-3.4014E-02
439.17	-3.0770E-02
439.54	-3.1999E-02
439.91	-3.5322E-02
440.28	-3.3070E-02
440.65	-3.3368E-02
441.02	-3.7807E-02
441.39	-3.5947E-02
441.76	-3.7653E-02
442.13	-2.3799E-02
442.50	-2.8805E-02
442.87	-3.8076E-02
443.24	-3.1020E-02
443.61	-2.2752E-02
443.97	-2.9377E-02
444.34	-3.1128E-02
444.71	-2.6301E-02
445.08	-1.1936E-02
445.45	-1.5867E-02
445.82	-8.7250E-03
446.19	-5.1322E-03
446.56	-1.7062E-02
446.93	-3.3004E-02
447.29	-2.1516E-02
447.66	-2.5257E-02
448.03	-2.2417E-02
448.40	-1.9954E-02
448.77	-1.3766E-02
449.14	-1.8140E-02
449.51	-1.7287E-02
449.87	-1.5069E-02
450.24	-1.9803E-02
450.61	-1.0837E-02
450.98	-1.3676E-02
451.35	-1.5709E-02
451.72	-8.2375E-03
452.08	-7.4837E-03
452.45	-1.8374E-02
452.82	-1.2908E-02
453.19	-1.2841E-02
453.56	-1.5964E-02
453.92	-1.2765E-02
454.29	-5.9612E-03
454.66	1.0222E-03
455.03	3.2021E-03
455.40	-6.4138E-03
455.76	2.2142E-03
456.13	1.0680E-02
456.50	-2.6874E-03
456.87	3.3289E-03
457.24	9.6604E-03
457.60	1.6390E-02
457.97	1.8815E-02
458.34	2.3306E-02
458.71	1.5933E-02
459.07	2.0083E-03
459.44	5.9846E-03
459.81	2.5887E-02
460.17	2.2270E-02
460.54	2.4654E-02
460.91	2.6504E-02
461.28	2.4403E-02
461.64	3.0395E-02
462.01	3.0988E-02
462.38	3.9972E-02
462.74	4.5065E-02
463.11	4.4006E-02
463.48	4.9924E-02
463.85	4.7849E-02
464.21	5.5524E-02
464.58	6.3143E-02
464.95	6.7897E-02
465.31	7.4156E-02
465.68	8.0485E-02
466.05	7.8950E-02
466.41	7.9548E-02
466.78	9.0903E-02
467.15	8.8819E-02
467.51	9.5642E-02
467.88	1.0471E-01
468.24	9.9294E-02
468.61	1.1289E-01
468.98	1.2549E-01
469.34	1.2904E-01
469.71	1.3403E-01
470.08	1.4579E-01
470.44	1.5775E-01
470.81	1.6238E-01
471.17	1.6359E-01
471.54	1.7964E-01
471.91	1.7880E-01
472.27	1.9077E-01
472.64	2.0465E-01
473.00	2.1194E-01
473.37	2.1175E-01
473.74	2.2303E-01
474.10	2.3566E-01
474.47	2.3822E-01
474.83	2.5343E-01
475.20	2.5901E-01
475.56	2.8292E-01
475.93	2.8490E-01
476.29	2.7904E-01
476.66	3.0210E-01
477.03	3.0739E-01
477.39	3.3355E-01
477.76	3.4127E-01
478.12	3.4986E-01
478.49	3.6578E-01
478.85	3.7416E-01
479.22	3.8540E-01
479.58	3.9956E-01
479.95	4.0498E-01
480.31	4.2645E-01
480.68	4.5394E-01
481.04	4.6419E-01
481.41	4.7008E-01
481.77	4.7940E-01
482.14	4.9936E-01
482.50	5.0579E-01
482.87	5.2676E-01
483.23	5.4319E-01
483.59	5.6454E-01
483.96	5.6937E-01
484.32	5.8123E-01
484.69	6.0267E-01
485.05	6.2174E-01
485.42	6.3224E-01
485.78	6.5761E-01
486.15	6.7092E-01
486.51	6.8101E-01
486.87	6.9034E-01
487.24	7.1447E-01
487.60	7.3053E-01
487.97	7.4378E-01
488.33	7.6784E-01
488.70	7.8426E-01
489.06	7.8997E-01
489.42	8.0929E-01
489.79	8.3611E-01
490.15	8.5275E-01
490.51	8.6914E-01
490.88	8.8240E-01
491.24	8.9973E-01
491.61	9.1776E-01
491.97	9.3256E-01
492.33	9.4945E-01
492.70	9.6083E-01
493.06	9.7469E-01
493.42	9.9370E-01
493.79	1.0072E00
494.15	1.0197E00
494.51	1.0218E00
494.88	1.0533E00
495.24	1.0551E00
495.60	1.0689E00
495.97	1.0823E00
496.33	1.0893E00
496.69	1.0861E00
497.06	1.0959E00
497.42	1.1135E00
497.78	1.1196E00
498.14	1.1309E00
498.51	1.1231E00
498.87	1.1322E00
499.23	1.1306E00
499.60	1.1287E00
499.96	1.1358E00
500.32	1.1296E00
500.68	1.1351E00
501.05	1.1274E00
501.41	1.1180E00
501.77	1.1261E00
502.13	1.1303E00
502.50	1.1244E00
502.86	1.1177E00
503.22	1.0992E00
503.58	1.0925E00
503.95	1.0934E00
504.31	1.0904E00
504.67	1.0737E00
505.03	1.0548E00
505.39	1.0340E00
505.76	1.0381E00
506.12	1.0317E00
506.48	1.0174E00
506.84	1.0002E00
507.20	9.7547E-01
507.57	9.7108E-01
507.93	9.4667E-01
508.29	9.3738E-01
508.65	9.2713E-01
509.01	9.1174E-01
509.37	8.9604E-01
509.74	8.8995E-01
510.10	8.5263E-01
510.46	8.4235E-01
510.82	8.3274E-01
511.18	8.0997E-01
511.54	7.9095E-01
511.90	7.9305E-01
512.27	7.6934E-01
512.63	7.5521E-01
512.99	7.3925E-01
513.35	7.1203E-01
513.71	7.1698E-01
514.07	6.9106E-01
514.43	6.8677E-01
514.79	6.6701E-01
515.15	6.5378E-01
515.52	6.4260E-01
515.88	6.2601E-01
516.24	6.1559E-01
516.60	6.0167E-01
516.96	5.9341E-01
517.32	5.7162E-01
517.68	5.5606E-01
518.04	5.5132E-01
518.40	5.3579E-01
518.76	5.2541E-01
519.12	5.0491E-01
519.48	5.0468E-01
519.84	4.8576E-01
520.20	4.7529E-01
520.56	4.6324E-01
520.92	4.6467E-01
521.28	4.5961E-01
521.64	4.4596E-01
522.00	4.3812E-01
522.36	4.1838E-01
522.72	4.1906E-01
523.08	3.9793E-01
523.44	3.9162E-01
523.80	3.7518E-01
524.16	3.6983E-01
524.52	3.6214E-01
524.88	3.5918E-01
525.24	3.5121E-01
525.60	3.3664E-01
525.96	3.3079E-01
526.32	3.1743E-01
526.68	3.0781E-01
527.04	3.0772E-01
527.40	2.9833E-01
527.76	2.8326E-01
528.12	2.7692E-01
528.48	2.6816E-01
528.84	2.7364E-01
529.20	2.6886E-01
529.56	2.5774E-01
529.91	2.4117E-01
530.27	2.4212E-01
530.63	2.3149E-01
530.99	2.2821E-01
531.35	2.1800E-01
531.71	2.1147E-01
532.07	2.0517E-01
532.43	2.0241E-01
532.79	1.9107E-01
533.15	1.9083E-01
533.50	1.7633E-01
533.86	1.7816E-01
534.22	1.7374E-01
534.58	1.6501E-01
534.94	1.6165E-01
535.30	1.6094E-01
535.66	1.5303E-01
536.01	1.4367E-01
536.37	1.4054E-01
536.73	1.4290E-01
537.09	1.3120E-01
537.45	1.2861E-01
537.81	1.2034E-01
538.16	1.2108E-01
538.52	1.2631E-01
538.88	1.1875E-01
539.24	1.0951E-01
539.60	1.0638E-01
539.95	1.0235E-01
540.31	1.0096E-01
540.67	9.7679E-02
541.03	9.9309E-02
541.38	9.4890E-02
541.74	8.7373E-02
542.10	8.5570E-02
542.46	8.3027E-02
542.82	8.3547E-02
543.17	8.2064E-02
543.53	7.6920E-02
543.89	7.0575E-02
544.25	7.0392E-02
544.60	7.4709E-02
544.96	7.0802E-02
545.32	6.5608E-02
545.67	6.3805E-02
546.03	6.7480E-02
546.39	6.8639E-02
546.75	6.7205E-02
547.10	5.9982E-02
547.46	6.0010E-02
547.82	5.1610E-02
548.17	5.7831E-02
548.53	5.3708E-02
548.89	4.8464E-02
549.24	4.3823E-02
549.60	4.5657E-02
549.96	3.9773E-02
550.31	3.1304E-02
550.67	3.3432E-02
551.03	3.6903E-02
551.38	4.0583E-02
551.74	3.6487E-02
552.10	2.7782E-02
552.45	2.7014E-02
552.81	3.4345E-02
553.17	3.0579E-02
553.52	2.7706E-02
553.88	2.7039E-02
554.23	2.2926E-02
554.59	2.5549E-02
554.95	2.9321E-02
555.30	2.9745E-02
555.66	3.0741E-02
556.02	1.8932E-02
556.37	2.0437E-02
556.73	1.8536E-02
557.08	1.4884E-02
557.44	1.2613E-02
557.79	1.1021E-02
558.15	1.1507E-02
558.51	1.2741E-02
558.86	1.3525E-02
559.22	1.4503E-02
559.57	1.1359E-02
559.93	9.3244E-03
560.28	9.1492E-03
560.64	1.0465E-02
560.99	8.4433E-03
561.35	1.2024E-02
561.70	1.0737E-02
562.06	4.9975E-03
562.41	-4.9826E-04
562.77	-1.7630E-03
563.13	5.0564E-04
563.48	-3.3000E-03
563.84	-1.7737E-03
564.19	8.1308E-03
564.54	7.3954E-03
564.90	7.6170E-04
565.25	-4.0721E-03
565.61	-3.5933E-03
565.96	-2.5638E-03
566.32	-4.1200E-03
566.67	1.2883E-03
567.03	-1.8133E-03
567.38	-1.0594E-02
567.74	-1.1029E-02
568.09	-3.3927E-03
568.45	-8.1383E-03
568.80	-1.7615E-02
569.15	-1.3549E-02
569.51	-1.1611E-02
569.86	-7.4501E-03
570.22	-5.8874E-03
570.57	-7.7664E-03
570.93	-5.9109E-03
571.28	-2.6791E-03
571.63	-4.3332E-03
571.99	-1.7080E-02
572.34	-1.8474E-02
572.70	-1.0688E-02
573.05	-1.1216E-02
573.40	-2.0373E-02
573.76	-1.6269E-02
574.11	-1.8117E-02
574.46	-1.9359E-02
574.82	-2.3168E-02
575.17	-1.6002E-02
575.53	-1.3203E-02
575.88	-1.5276E-02
576.23	-1.6502E-02
576.59	-1.5783E-02
576.94	-1.2360E-02
577.29	-1.2996E-02
577.65	-1.1788E-02
578.00	-1.2629E-02
578.35	-1.5454E-02
578.70	-1.7325E-02
579.06	-6.6172E-03
579.41	-1.4484E-02
579.76	-1.4561E-02
580.12	-1.3967E-02
580.47	-1.7545E-02
580.82	-1.7318E-02
581.18	-2.3693E-02
581.53	-1.8962E-02
581.88	-1.6581E-02
582.23	-2.2101E-02
582.59	-2.2836E-02
582.94	-1.9544E-02
583.29	-1.9182E-02
583.64	-1.6132E-02
584.00	-1.9503E-02
584.35	-2.1133E-02
584.70	-2.1707E-02
585.05	-1.6266E-02
585.41	-2.3822E-02
585.76	-2.4662E-02
586.11	-1.9444E-02
586.46	-1.3329E-02
586.81	-2.2785E-02
587.17	-2.4893E-02
587.52	-2.7308E-02
587.87	-2.6549E-02
588.22	-2.5953E-02
588.57	-1.8083E-02
588.93	-2.2595E-02
589.28	-2.3165E-02
589.63	-2.6206E-02
589.98	-2.9783E-02
590.33	-2.7705E-02
590.68	-2.2804E-02
591.04	-2.4959E-02
591.39	-2.8479E-02
591.74	-2.7844E-02
592.09	-3.4981E-02
592.44	-3.8082E-02
592.79	-3.3828E-02
593.14	-3.6023E-02
593.50	-3.7509E-02
593.85	-3.0935E-02
594.20	-3.1724E-02
594.55	-2.6161E-02
594.90	-3.6100E-02
595.25	-4.2877E-02
595.60	-3.7363E-02
595.95	-3.8466E-02
596.30	-3.9876E-02
596.66	-2.6190E-02
597.01	-3.7474E-02
597.36	-3.9150E-02
597.71	-4.2853E-02
598.06	-4.5539E-02
598.41	-4.6661E-02
598.76	-4.8274E-02
599.11	-4.2147E-02
599.46	-3.7548E-02
599.81	-4.0642E-02
600.16	-4.3323E-02
600.51	-4.3153E-02
600.86	-3.8348E-02
601.21	-4.8705E-02
601.56	-4.5834E-02
601.91	-4.6474E-02
602.26	-4.7155E-02
602.61	-5.2006E-02
602.96	-5.4213E-02
603.31	-5.0780E-02
603.66	-4.9434E-02
604.01	-4.9010E-02
604.36	-4.8163E-02
604.71	-5.6181E-02
605.06	-5.1580E-02
605.41	-5.4712E-02
605.76	-5.3046E-02
606.11	-5.5330E-02
606.46	-6.1625E-02
606.81	-5.8473E-02
607.16	-5.4276E-02
607.51	-5.3640E-02
607.86	-5.8443E-02
608.21	-6.5928E-02
608.56	-5.8428E-02
608.91	-5.6326E-02
609.26	-6.3898E-02
609.61	-6.9077E-02
609.95	-7.7890E-02
610.30	-9.5845E-02
610.65	-1.2124E-01
611.00	-1.6096E-01
611.35	-2.0099E-01
611.70	-2.2392E-01
612.05	-2.0980E-01
612.40	-1.8636E-01
612.75	-1.6767E-01
613.09	-1.5238E-01
613.44	-1.3834E-01
613.79	-1.2643E-01
614.14	-1.1220E-01
614.49	-1.1506E-01
614.84	-1.1868E-01
615.19	-1.1649E-01
615.53	-1.0488E-01
615.88	-9.3282E-02
616.23	-8.4789E-02
616.58	-8.3396E-02
616.93	-8.7150E-02
617.28	-8.5271E-02
617.62	-8.0633E-02
617.97	-7.9427E-02
618.32	-7.2700E-02
618.67	-7.3528E-02
619.02	-8.5465E-02
619.36	-8.4620E-02
619.71	-8.0839E-02
620.06	-7.7650E-02
620.41	-7.7181E-02
620.76	-8.3287E-02
621.10	-7.2355E-02
621.45	-8.0509E-02
621.80	-8.4739E-02
622.15	-9.0542E-02
622.49	-8.7456E-02
622.84	-8.4815E-02
623.19	-8.6074E-02
623.54	-8.7130E-02
623.88	-8.9688E-02
624.23	-8.7054E-02
624.58	-8.6006E-02
624.92	-8.6184E-02
625.27	-8.3661E-02
625.62	-8.5724E-02
625.97	-8.6086E-02
626.31	-8.8374E-02
626.66	-8.8501E-02
627.01	-9.0249E-02
627.35	-9.2081E-02
627.70	-8.6776E-02
628.05	-8.5712E-02
628.39	-8.9061E-02
628.74	-9.1676E-02
629.09	-9.5269E-02
629.43	-9.8653E-02
629.78	-1.0048E-01
630.13	-1.0277E-01
630.47	-1.0247E-01
630.82	-1.1531E-01
631.17	-1.1240E-01
631.51	-1.1046E-01
631.86	-1.1482E-01
632.20	-1.0378E-01
632.55	-9.7849E-02
632.90	-9.7516E-02
633.24	-9.6608E-02
633.59	-9.1724E-02
633.94	-8.6490E-02
634.28	-7.7293E-02
634.63	-8.0398E-02
634.97	-8.0580E-02
635.32	-8.4251E-02
635.66	-7.6912E-02
636.01	-7.5276E-02
636.36	-8.3595E-02
636.70	-8.2539E-02
637.05	-8.9090E-02
637.39	-8.5351E-02
637.74	-8.0709E-02
638.08	-8.0531E-02
638.43	-8.2667E-02
638.77	-7.9510E-02
639.12	-8.3554E-02
639.46	-8.4719E-02
639.81	-8.9767E-02
640.15	-8.3393E-02
640.50	-7.9567E-02
640.85	-8.1356E-02
641.19	-8.3770E-02
641.54	-7.5834E-02
641.88	-7.1354E-02
642.22	-8.1512E-02
642.57	-7.9656E-02
642.91	-8.3197E-02
643.26	-9.0347E-02
643.60	-8.6177E-02
643.95	-7.9391E-02
644.29	-8.2836E-02
644.64	-8.3325E-02
644.98	-7.6245E-02
645.33	-7.2810E-02
645.67	-8.0981E-02
646.02	-7.2367E-02
646.36	-8.0933E-02
646.70	-8.0696E-02
647.05	-8.6901E-02
647.39	-8.1964E-02
647.74	-7.8845E-02
648.08	-8.1088E-02
648.42	-8.8288E-02
648.77	-9.0775E-02
649.11	-8.6021E-02
649.46	-8.9719E-02
649.80	-8.8831E-02
650.14	-9.0309E-02
650.49	-8.9212E-02
650.83	-9.3137E-02
651.18	-9.6270E-02
651.52	-9.5596E-02
651.86	-8.8029E-02
652.21	-8.4190E-02
652.55	-8.4838E-02
652.89	-7.5785E-02
653.24	-7.9782E-02
653.58	-7.9152E-02
653.92	-7.8482E-02
654.27	-8.0582E-02
654.61	-8.4618E-02
654.95	-9.8516E-02
655.30	-9.0349E-02
655.64	-8.1313E-02
655.98	-8.5320E-02
656.33	-9.1239E-02
656.67	-8.4423E-02
657.01	-7.7862E-02
657.35	-8.6379E-02
657.70	-7.2027E-02
658.04	-8.3871E-02
658.38	-8.2179E-02
658.73	-7.4760E-02
659.07	-8.3346E-02
659.41	-8.6223E-02
659.75	-9.3056E-02
660.10	-8.9312E-02
660.44	-8.5934E-02
660.78	-8.8214E-02
661.12	-9.1676E-02
661.46	-8.6967E-02
661.81	-9.8223E-02
662.15	-1.0036E-01
662.49	-9.0575E-02
662.83	-1.0896E-01
663.18	-1.1069E-01
663.52	-1.1143E-01
663.86	-9.9553E-02
664.20	-1.0371E-01
664.54	-9.8141E-02
664.88	-9.6050E-02
665.23	-9.0279E-02
665.57	-8.7936E-02
665.91	-9.1293E-02
666.25	-8.9850E-02
666.59	-1.0258E-01
666.93	-1.0080E-01
667.28	-9.9127E-02
667.62	-9.3081E-02
667.96	-9.9945E-02
668.30	-8.6403E-02
668.64	-9.2709E-02
668.98	-1.0302E-01
669.32	-1.0087E-01
669.67	-9.9605E-02
670.01	-1.0247E-01
670.35	-1.0920E-01
670.69	-1.0461E-01
671.03	-9.7024E-02
671.37	-1.0547E-01
671.71	-9.1364E-02
672.05	-9.2148E-02
672.39	-9.7509E-02
672.73	-9.7556E-02
673.07	-9.6493E-02
673.42	-8.3657E-02
673.76	-9.5090E-02
674.10	-9.9003E-02
674.44	-1.0066E-01
674.78	-1.0490E-01
675.12	-1.0315E-01
675.46	-1.1201E-01
675.80	-1.1773E-01
676.14	-1.0367E-01
676.48	-9.9736E-02
676.82	-1.0794E-01
677.16	-9.6182E-02
677.50	-9.8043E-02
677.84	-8.6384E-02
678.18	-7.9942E-02
678.52	-8.8407E-02
678.86	-9.6434E-02
679.20	-9.7131E-02
679.54	-1.0041E-01
679.88	-1.0330E-01
680.22	-1.0395E-01
680.56	-9.0459E-02
680.90	-1.0058E-01
681.24	-9.9755E-02
681.58	-9.5256E-02
681.92	-9.0314E-02
682.26	-9.5522E-02
682.60	-9.9508E-02
682.93	-9.7287E-02
683.27	-9.5709E-02
683.61	-9.0013E-02
683.95	-1.0462E-01
684.29	-1.0877E-01
684.63	-1.0979E-01
684.97	-9.5970E-02
685.31	-1.0543E-01
685.65	-9.1901E-02
685.99	-9.8996E-02
686.33	-1.0372E-01
686.66	-9.0880E-02
687.00	-9.8412E-02
687.34	-1.0138E-01
687.68	-1.0904E-01
688.02	-1.0305E-01
688.36	-9.5896E-02
688.70	-1.1600E-01
689.03	-1.0208E-01
689.37	-8.7899E-02
689.71	-9.5762E-02
690.05	-1.0243E-01
690.39	-1.0616E-01
690.73	-1.0762E-01
691.06	-1.0853E-01
691.40	-9.8947E-02
691.74	-1.0084E-01
692.08	-1.1289E-01
692.42	-1.1464E-01
692.75	-9.5227E-02
693.09	-1.1936E-01
693.43	-1.1462E-01
693.77	-1.0772E-01
694.11	-1.1240E-01
694.44	-1.0407E-01
694.78	-1.0088E-01
695.12	-1.1549E-01
695.46	-9.9360E-02
695.79	-9.7182E-02
696.13	-1.0434E-01
696.47	-1.1060E-01
696.81	-1.1285E-01
697.14	-1.0765E-01
697.48	-1.1009E-01
697.82	-1.1781E-01
698.16	-1.0959E-01
698.49	-1.1643E-01
698.83	-1.1575E-01
699.17	-1.1184E-01
699.50	-9.6553E-02
699.84	-9.2023E-02
700.18	-9.3125E-02
700.51	-1.0672E-01
700.85	-9.4843E-02
701.19	-1.0443E-01
701.52	-1.0451E-01
701.86	-1.1032E-01
702.20	-1.1194E-01
702.53	-1.2535E-01
702.87	-1.3134E-01
703.21	-1.2494E-01
703.54	-1.1819E-01
703.88	-1.0383E-01
704.22	-1.1658E-01
704.55	-1.2076E-01
704.89	-1.1706E-01
705.23	-1.2051E-01
705.56	-1.2583E-01
705.90	-1.3635E-01
706.23	-1.4017E-01
706.57	-1.2604E-01
706.91	-1.6043E-01
707.24	-1.6658E-01
707.58	-1.5898E-01
707.91	-1.5306E-01
708.25	-1.5979E-01
708.58	-1.5048E-01
708.92	-1.6755E-01
709.26	-1.6092E-01
709.59	-1.5389E-01
709.93	-1.4053E-01
710.26	-1.4926E-01
710.60	-1.4617E-01
710.93	-1.4109E-01
711.27	-1.4707E-01
711.60	-1.5225E-01
711.94	-1.5338E-01
712.27	-1.4979E-01
712.61	-1.6318E-01
712.95	-1.6311E-01
713.28	-1.5229E-01
713.62	-1.6538E-01
713.95	-1.4776E-01
714.28	-1.3744E-01
714.62	-1.3487E-01
714.95	-1.3875E-01
715.29	-1.3088E-01
715.62	-1.3186E-01
715.96	-1.2673E-01
716.29	-1.3284E-01
716.63	-1.2183E-01
716.96	-1.1529E-01
717.30	-1.1405E-01
717.63	-1.1974E-01
717.97	-1.1352E-01
718.30	-1.0757E-01
718.63	-1.1225E-01
718.97	-1.0515E-01
719.30	-9.9450E-02
719.64	-1.1575E-01
719.97	-9.1602E-02
720.31	-9.9185E-02
720.64	-1.1244E-01
720.97	-1.1187E-01
721.31	-1.1385E-01
721.64	-1.2526E-01
721.97	-9.3905E-02
722.31	-1.2525E-01
722.64	-1.2861E-01
722.98	-9.2148E-02
723.31	-1.0700E-01
723.64	-1.3364E-01
723.98	-1.3165E-01
724.31	-1.2744E-01
724.64	-1.2910E-01
724.98	-1.1929E-01
725.31	-1.1252E-01
725.64	-1.0697E-01
725.98	-1.1903E-01
726.31	-1.0757E-01
726.64	-1.1432E-01
726.98	-1.3775E-01
727.31	-1.1189E-01
727.64	-1.0773E-01
727.97	-1.2361E-01
728.31	-1.3193E-01
728.64	-1.0161E-01
728.97	-1.0344E-01
729.31	-1.2355E-01
729.64	-1.2873E-01
729.97	-1.1682E-01
730.30	-1.3825E-01
730.64	-1.2963E-01
730.97	-1.0170E-01
731.30	-1.3334E-01
731.63	-1.2996E-01
731.97	-1.2897E-01
732.30	-1.3289E-01
732.63	-1.3375E-01
732.96	-1.3946E-01
733.29	-1.3855E-01
733.63	-1.2692E-01
733.96	-1.3229E-01
734.29	-1.3221E-01
734.62	-1.3950E-01
734.96	-1.3425E-01
735.29	-1.2909E-01
735.62	-1.3169E-01
735.95	-1.4118E-01
736.28	-1.4573E-01
736.61	-1.3593E-01
736.95	-1.4188E-01
737.28	-1.3276E-01
737.61	-1.5609E-01
737.94	-1.5368E-01
738.27	-1.4795E-01
738.60	-1.3745E-01
738.93	-1.4798E-01
739.27	-1.2469E-01
739.60	-1.3876E-01
739.93	-1.4106E-01
740.26	-1.3550E-01
740.59	-1.4380E-01
740.92	-1.4549E-01
741.25	-1.4662E-01
741.58	-1.5560E-01
741.91	-1.4965E-01
742.24	-1.5102E-01
742.58	-1.4940E-01
742.91	-1.4019E-01
743.24	-1.4387E-01
743.57	-1.7551E-01
743.90	-1.4699E-01
744.23	-1.5504E-01
744.56	-1.5210E-01
744.89	-1.5210E-01
745.22	-1.2864E-01
745.55	-1.3813E-01
745.88	-1.6137E-01
746.21	-1.5458E-01
746.54	-1.4137E-01
746.87	-1.4030E-01
747.20	-1.6499E-01
747.53	-1.6050E-01
747.86	-1.7233E-01
748.19	-1.5469E-01
748.52	-1.6578E-01
748.85	-1.7272E-01
749.18	-1.5693E-01
749.51	-1.6491E-01
749.84	-1.8533E-01
750.17	-1.6829E-01
750.50	-1.6065E-01
750.83	-1.4854E-01
751.16	-1.5434E-01
751.49	-1.5733E-01
751.82	-1.6211E-01
752.15	-1.6496E-01
752.48	-1.5554E-01
752.81	-1.2719E-01
753.14	-1.4993E-01
753.46	-1.6780E-01
753.79	-1.8885E-01
754.12	-1.6065E-01
754.45	-1.7061E-01
754.78	-1.6376E-01
755.11	-1.5153E-01
755.44	-1.5665E-01
755.77	-1.3715E-01
756.10	-1.5222E-01
756.42	-1.8787E-01
756.75	-2.0239E-01
757.08	-1.7116E-01
757.41	-1.6717E-01
757.74	-1.5697E-01
758.07	-1.4574E-01
758.40	-1.7116E-01
758.72	-1.6979E-01
759.05	-1.7040E-01
759.38	-1.4772E-01
759.71	-1.4354E-01
760.04	-1.5677E-01
760.37	-1.3697E-01
760.69	-1.0931E-01
761.02	-1.1685E-01
761.35	-1.2277E-01
761.68	-1.3847E-01
762.01	-1.2521E-01
762.33	-1.3833E-01
762.66	-1.2301E-01
762.99	-1.2221E-01
763.32	-1.2407E-01
763.64	-1.4095E-01
763.97	-1.4200E-01
764.30	-1.2940E-01
764.63	-1.2442E-01
764.95	-1.4434E-01
765.28	-1.7035E-01
765.61	-1.2426E-01
765.94	-1.3293E-01
766.26	-1.4408E-01
766.59	-1.3294E-01
766.92	-1.7271E-01
767.25	-1.6522E-01
767.57	-1.5647E-01
767.90	-1.7444E-01
768.23	-1.7915E-01
768.55	-1.6091E-01
768.88	-1.5388E-01
769.21	-1.7604E-01
769.53	-2.1460E-01
769.86	-1.9232E-01
770.19	-1.7420E-01
770.51	-1.8586E-01
770.84	-1.7508E-01
771.17	-1.9443E-01
771.49	-1.7348E-01
771.82	-1.3694E-01
772.15	-2.0784E-01
772.47	-2.1307E-01
772.80	-2.1666E-01
773.13	-1.8960E-01
773.45	-2.0603E-01
773.78	-1.8763E-01
774.10	-1.7444E-01
774.43	-1.6012E-01
774.76	-1.8410E-01
775.08	-2.1790E-01
775.41	-2.1762E-01
775.73	-2.1566E-01
776.06	-2.4562E-01
776.38	-2.3464E-01
776.71	-1.9967E-01
777.04	-1.9262E-01
777.36	-2.0423E-01
777.69	-1.9531E-01
778.01	-1.9181E-01
778.34	-1.9726E-01
778.66	-1.8587E-01
778.99	-1.7398E-01
779.31	-2.0027E-01
779.64	-1.9803E-01
779.96	-1.7402E-01
780.29	-1.7139E-01
780.61	-1.8644E-01
780.94	-1.7281E-01
781.26	-1.6051E-01
781.59	-1.8956E-01
781.91	-2.1059E-01
782.24	-2.0767E-01
782.56	-1.9996E-01
782.89	-1.9284E-01
783.21	-2.2111E-01
783.54	-2.1557E-01
783.86	-1.9378E-01
784.19	-2.0537E-01
784.51	-2.0794E-01
784.84	-2.0914E-01
785.16	-2.1923E-01
785.48	-1.9821E-01
785.81	-1.7794E-01
786.13	-2.2865E-01
786.46	-2.3569E-01
786.78	-1.9566E-01
787.11	-2.0036E-01
787.43	-1.9419E-01
787.75	-2.2288E-01
788.08	-2.4140E-01
788.40	-2.2331E-01
788.73	-2.3325E-01
789.05	-2.2944E-01
789.37	-2.4723E-01
789.70	-2.3102E-01
790.02	-2.2631E-01
790.34	-2.3449E-01
790.67	-2.1035E-01
790.99	-2.1998E-01
791.31	-1.9338E-01
791.64	-1.9778E-01
791.96	-1.7535E-01
792.28	-2.0457E-01
792.61	-2.1053E-01
792.93	-2.2648E-01
793.25	-2.2304E-01
793.58	-2.0862E-01
793.90	-1.8329E-01
794.22	-1.9495E-01
794.55	-2.2622E-01
794.87	-1.9744E-01
795.19	-2.1384E-01
795.51	-1.9679E-01
795.84	-1.9807E-01
796.16	-1.9912E-01
796.48	-2.2806E-01
796.80	-1.8440E-01
797.13	-1.9199E-01
797.45	-1.9787E-01
797.77	-2.0137E-01
798.09	-1.9921E-01
798.42	-2.0197E-01
798.74	-2.1560E-01
799.06	-2.2989E-01
799.38	-2.3475E-01
799.71	-2.2814E-01
800.03	-2.1476E-01
800.35	-1.8878E-01
800.67	-1.8962E-01
800.99	-2.0504E-01
801.32	-2.0222E-01
801.64	-2.1727E-01
801.96	-1.9936E-01
802.28	-2.1635E-01
802.60	-2.4083E-01
802.92	-1.9585E-01
803.25	-2.3190E-01
803.57	-2.1474E-01
803.89	-1.7549E-01
804.21	-2.2557E-01
804.53	-2.2199E-01
804.85	-1.8150E-01
805.17	-1.8091E-01
805.50	-2.2187E-01
805.82	-2.2028E-01
806.14	-2.0424E-01
806.46	-2.3374E-01
806.78	-1.9367E-01
807.10	-1.8465E-01
807.42	-2.1200E-01
807.74	-2.6493E-01
808.06	-2.3696E-01
808.38	-2.3435E-01
808.70	-2.1737E-01
809.03	-2.3306E-01
809.35	-2.2774E-01
809.67	-1.8719E-01
809.99	-2.1169E-01
810.31	-2.2264E-01
810.63	-2.2189E-01
810.95	-2.3646E-01
811.27	-1.9902E-01
811.59	-1.7411E-01
811.91	-2.2902E-01
812.23	-2.4712E-01
812.55	-2.2009E-01
812.87	-2.2360E-01
813.19	-2.6061E-01
813.51	-2.3427E-01
813.83	-1.8754E-01
814.15	-1.6845E-01
814.47	-1.7780E-01
814.79	-2.0509E-01
815.11	-1.9394E-01
815.43	-2.0668E-01
815.75	-1.8201E-01
816.07	-1.7570E-01
816.39	-2.3213E-01
816.71	-2.3569E-01
817.03	-2.2330E-01
817.34	-2.3235E-01
817.66	-2.0588E-01
817.98	-2.2753E-01
818.30	-2.0836E-01
818.62	-2.0522E-01
818.94	-2.1360E-01
819.26	-1.9247E-01
819.58	-2.2874E-01
819.90	-2.0448E-01
820.22	-2.5262E-01
820.54	-2.2195E-01
820.85	-2.2393E-01
821.17	-2.1161E-01
821.49	-2.2131E-01
821.81	-2.5491E-01
822.13	-2.7318E-01
822.45	-2.0594E-01
822.77	-2.0434E-01
823.08	-1.9271E-01
823.40	-2.5728E-01
823.72	-2.3176E-01
824.04	-2.4506E-01
824.36	-2.1501E-01
824.68	-2.1789E-01
824.99	-2.8956E-01
825.31	-2.4991E-01
825.63	-2.3442E-01
825.95	-2.5416E-01
826.27	-2.4378E-01
826.58	-2.3890E-01
826.90	-3.3918E-01
827.22	-3.0088E-01
827.54	-2.3871E-01
827.85	-2.0708E-01
828.17	-2.5941E-01
828.49	-2.6393E-01
828.81	-2.3110E-01
829.12	-2.2010E-01
829.44	-2.3743E-01
829.76	-2.5227E-01
830.08	-2.0838E-01
830.39	-2.6220E-01
830.71	-2.1456E-01
831.03	-2.7318E-01
831.35	-2.3717E-01
831.66	-1.8093E-01
831.98	-2.4148E-01
832.30	-3.0286E-01
832.61	-2.4523E-01
832.93	-2.3571E-01
833.25	-2.8691E-01
833.56	-2.9139E-01
833.88	-2.3162E-01
834.20	-2.8073E-01
834.51	-2.8379E-01
834.83	-2.2152E-01
835.15	-2.5303E-01
835.46	-2.2454E-01
835.78	-2.4205E-01
836.10	-2.2592E-01
836.41	-2.5277E-01
836.73	-2.5422E-01
837.04	-2.5885E-01
837.36	-2.3065E-01
837.68	-2.4416E-01
837.99	-2.4451E-01
838.31	-2.6132E-01
838.62	-2.4909E-01
838.94	-2.4239E-01
839.26	-2.4609E-01
839.57	-2.0367E-01
839.89	-2.4700E-01
840.20	-2.5811E-01
840.52	-2.2701E-01
840.83	-2.5235E-01
841.15	-2.7906E-01
841.47	-2.6543E-01
841.78	-2.4872E-01
842.10	-2.2240E-01
842.41	-2.6068E-01
842.73	-2.2391E-01
843.04	-2.6002E-01
843.36	-2.6859E-01
843.67	-2.7204E-01
843.99	-2.7579E-01
844.30	-2.4826E-01
844.62	-3.0776E-01
844.93	-2.6999E-01
845.25	-2.6933E-01
845.56	-2.9261E-01
845.88	-2.7572E-01
846.19	-2.5290E-01
846.51	-2.8317E-01
846.82	-2.6109E-01
847.14	-3.3252E-01
847.45	-2.4049E-01
847.76	-2.3781E-01
848.08	-2.3837E-01
848.39	-3.0512E-01
848.71	-3.3659E-01
849.02	-2.8678E-01
849.34	-3.0938E-01
849.65	-2.7667E-01
849.96	-2.6002E-01
850.28	-2.3910E-01
850.59	-2.9287E-01
850.91	-3.3021E-01
851.22	-3.1368E-01
851.53	-2.4214E-01
851.85	-2.5885E-01
852.16	-2.4478E-01
852.47	-3.4257E-01
852.79	-3.3070E-01
853.10	-3.0254E-01
853.41	-2.4018E-01
853.73	-2.7301E-01
854.04	-2.3837E-01
854.36	-2.2831E-01
854.67	-2.6466E-01
854.98	-2.9187E-01
855.29	-3.3755E-01
855.61	-3.3521E-01
855.92	-3.0721E-01
856.23	-2.4272E-01
856.55	-2.9624E-01
856.86	-2.7897E-01
857.17	-3.0024E-01
857.49	-2.8108E-01
857.80	-3.6561E-01
858.11	-3.5635E-01
858.42	-3.3401E-01
858.74	-2.5180E-01
859.05	-3.4061E-01
859.36	-4.1162E-01
859.67	-3.1720E-01
859.99	-2.9446E-01
860.30	-2.7092E-01
860.61	-3.4752E-01
860.92	-3.0438E-01
861.24	-3.8503E-01
861.55	-3.4380E-01
861.86	-4.0157E-01
862.17	-4.1316E-01
862.48	-3.7324E-01
862.80	-3.7418E-01
863.11	-3.7316E-01
863.42	-2.7210E-01
863.73	-3.1424E-01
864.04	-3.1324E-01
864.35	-3.3285E-01
864.67	-3.5298E-01
864.98	-3.6079E-01
865.29	-2.9736E-01
865.60	-3.2785E-01
865.91	-3.1627E-01
866.22	-3.4375E-01
866.53	-3.7079E-01
866.85	-3.8237E-01
867.16	-3.8863E-01
867.47	-3.8244E-01
867.78	-3.4555E-01
868.09	-3.9622E-01
868.40	-3.9593E-01
868.71	-4.1802E-01
869.02	-3.9368E-01
869.33	-4.4967E-01
869.65	-3.9124E-01
869.96	-4.6180E-01
870.27	-4.0329E-01
870.58	-2.8859E-01
870.89	-4.0934E-01
871.20	-3.7063E-01
871.51	-3.4613E-01
871.82	-3.8738E-01
872.13	-4.2201E-01
872.44	-3.9118E-01
872.75	-4.3335E-01
873.06	-4.2977E-01
873.37	-4.3400E-01
873.68	-4.1002E-01
873.99	-3.8050E-01
874.30	-4.4964E-01
874.61	-4.0481E-01
874.92	-4.0388E-01
875.23	-4.1368E-01
875.54	-4.6109E-01
875.85	-4.6382E-01
876.16	-5.2130E-01
876.47	-3.4606E-01
876.78	-3.3615E-01
877.09	-3.6107E-01
877.40	-4.0007E-01
877.71	-4.3508E-01
878.02	-4.5798E-01
878.33	-4.2829E-01
878.64	-4.4318E-01
878.94	-4.6615E-01
879.25	-5.0037E-01
879.56	-4.4837E-01
879.87	-5.2231E-01
880.18	-4.8605E-01
880.49	-4.3258E-01
880.80	-3.3788E-01
881.11	-3.6198E-01
881.42	-4.8408E-01
881.72	-4.9475E-01
882.03	-4.7987E-01
882.34	-4.9934E-01
882.65	-4.9491E-01
882.96	-4.3950E-01
883.27	-4.4256E-01
883.58	-5.2924E-01
883.88	-4.3335E-01
884.19	-5.2977E-01
884.50	-4.0843E-01
884.81	-4.0331E-01
885.12	-5.2735E-01
885.43	-5.0727E-01
885.73	-4.4497E-01
886.04	-5.1721E-01
886.35	-5.4222E-01
886.66	-4.5420E-01
886.97	-5.5518E-01
887.27	-4.8323E-01
887.58	-4.6814E-01
887.89	-4.7264E-01
888.20	-5.6328E-01
888.50	-5.4445E-01
888.81	-4.7257E-01
889.12	-4.8794E-01
889.43	-4.8783E-01
889.73	-4.2517E-01
890.04	-4.5532E-01
890.35	-4.7349E-01
890.66	-4.4096E-01
890.96	-6.3178E-01
891.27	-5.5086E-01
891.58	-4.7260E-01
891.88	-4.2009E-01
892.19	-5.0851E-01
892.50	-4.0472E-01
892.80	-5.3094E-01
893.11	-4.5767E-01
893.42	-4.5175E-01
893.72	-4.8243E-01
894.03	-4.0692E-01
894.34	-4.5238E-01
894.64	-4.7152E-01
894.95	-5.3767E-01
895.26	-5.0820E-01
895.56	-5.0337E-01
895.87	-4.0667E-01
896.18	-4.4025E-01
896.48	-4.1812E-01
896.79	-4.2775E-01
897.09	-5.0678E-01
897.40	-4.9352E-01
897.71	-4.0282E-01
898.01	-3.8450E-01
898.32	-4.1520E-01
898.62	-4.9298E-01
898.93	-3.3886E-01
899.24	-4.9351E-01
899.54	-5.7250E-01
899.85	-4.8572E-01
900.15	-3.6361E-01
900.46	-3.6913E-01
900.76	-4.7710E-01
901.07	-4.7127E-01
901.37	-5.2694E-01
901.68	-4.7245E-01
901.99	-4.7333E-01
902.29	-5.0094E-01
902.60	-5.6288E-01
902.90	-4.4988E-01
903.21	-3.3503E-01
903.51	-4.8187E-01
903.82	-4.8172E-01
904.12	-5.3639E-01
904.43	-5.6432E-01
904.73	-4.1085E-01
905.03	-4.2402E-01
905.34	-4.3418E-01
905.64	-5.0049E-01
905.95	-5.2459E-01
906.25	-4.2064E-01
906.56	-4.2750E-01
906.86	-4.9397E-01
907.17	-4.6920E-01
907.47	-3.8812E-01
907.78	-4.4467E-01
908.08	-5.2877E-01
908.38	-5.4405E-01
908.69	-5.2863E-01
908.99	-5.2082E-01
909.30	-4.8347E-01
909.60	-5.5238E-01
909.90	-4.5569E-01
910.21	-5.5121E-01
910.51	-5.0161E-01
910.81	-5.2175E-01
911.12	-5.9321E-01
911.42	-5.4519E-01
911.73	-4.2276E-01
912.03	-4.4341E-01
912.33	-5.7401E-01
912.64	-5.2954E-01
912.94	-6.0275E-01
913.24	-5.0719E-01
913.55	-4.7941E-01
913.85	-5.5888E-01
914.15	-5.4402E-01
914.45	-5.0088E-01
914.76	-5.2906E-01
915.06	-5.1074E-01
915.36	-5.0585E-01
915.67	-6.1187E-01
915.97	-5.2124E-01
916.27	-6.1911E-01
916.57	-4.6394E-01
916.88	-4.8445E-01
917.18	-6.1701E-01
917.48	-4.7616E-01
917.78	-5.9606E-01
918.09	-6.4442E-01
918.39	-5.6776E-01
918.69	-5.3303E-01
918.99	-5.7800E-01
919.30	-5.0415E-01
919.60	-6.5127E-01
919.90	-6.3636E-01
920.20	-5.9840E-01
920.50	-6.7821E-01
920.81	-7.6554E-01
921.11	-5.8559E-01
921.41	-5.9098E-01
921.71	-6.8692E-01
922.01	-8.3886E-01
922.32	-7.1736E-01
922.62	-5.8122E-01
922.92	-6.2632E-01
923.22	-5.6736E-01
923.52	-6.3787E-01
923.82	-5.9490E-01
924.12	-6.6585E-01
924.43	-6.6280E-01
924.73	-7.1520E-01
925.03	-7.1921E-01
925.33	-6.1364E-01
925.63	-6.9079E-01
925.93	-5.9777E-01
926.23	-5.6555E-01
926.53	-5.8316E-01
926.83	-5.2284E-01
927.13	-6.9844E-01
927.44	-5.5533E-01
927.74	-6.8212E-01
928.04	-7.2994E-01
928.34	-6.6888E-01
928.64	-7.5371E-01
928.94	-7.7997E-01
929.24	-8.4175E-01
929.54	-7.1118E-01
929.84	-7.2104E-01
930.14	-9.5193E-01
930.44	-7.1153E-01
930.74	-7.6829E-01
931.04	-8.0071E-01
931.34	-9.0765E-01
931.64	-8.3461E-01
931.94	-8.8638E-01
932.24	-8.7642E-01
932.54	-7.3975E-01
932.84	-8.1632E-01
933.14	-8.3789E-01
933.44	-9.4193E-01
933.74	-8.9953E-01
934.04	-8.8797E-01
934.34	-8.9530E-01
934.64	-6.9884E-01
934.94	-6.7058E-01
935.24	-9.1159E-01
935.54	-1.0569E00
935.83	-1.2005E00
936.13	-9.2730E-01
936.43	-9.5307E-01
936.73	-1.0072E00
937.03	-9.0888E-01
937.33	-8.0584E-01
937.63	-1.1290E00
937.93	-1.0189E00
938.23	-9.5856E-01
938.53	-1.1585E00
938.82	-1.1977E00
939.12	-1.0914E00
939.42	-1.0241E00
939.72	-8.8594E-01
940.02	-9.4158E-01
940.32	-1.1766E00
940.62	-1.2291E00
940.91	-1.4486E00
941.21	-1.4733E00
941.51	-1.0004E00
941.81	-1.0566E00
942.11	-1.1710E00
942.40	-1.6412E00
942.70	-1.3315E00
943.00	-1.6544E00
943.30	-1.7850E00
943.60	-1.7266E00
943.89	-1.4474E00
944.19	-1.5410E00
944.49	-1.4479E00
944.79	-1.6297E00
945.08	-1.9136E00
945.38	-1.8127E00
945.68	-1.2079E00
945.98	-1.2972E00
946.27	-1.8105E00
946.57	-1.4934E00
946.87	-1.3576E00
947.17	-1.5296E00
947.46	-1.5596E00
947.76	-1.1940E00
948.06	-1.2648E00
948.35	-1.1836E00
948.65	-1.7125E00
948.95	-1.6140E00
949.24	-1.8101E00
949.54	-1.9246E00
949.84	-1.5278E00
950.13	-1.2375E00
950.43	-1.4954E00
950.73	-1.5810E00
951.02	-1.4236E00
951.32	-1.5599E00
951.62	-1.5604E00
951.91	-1.3999E00
952.21	-1.6989E00
952.51	-1.3545E00
952.80	-1.1137E00
953.10	-1.3953E00
953.39	-1.3887E00
953.69	-1.3690E00
953.99	-1.1938E00
954.28	-1.5697E00
954.58	-1.6401E00
954.87	-1.4997E00
955.17	-1.5810E00
955.46	-1.0385E00
955.76	-1.2250E00
956.06	-1.2322E00
956.35	-1.1688E00
956.65	-1.0423E00
956.94	-1.0804E00
957.24	-1.5193E00
957.53	-1.5554E00
957.83	-1.4129E00
958.12	-1.5539E00
958.42	-1.2913E00
958.71	-1.5839E00
959.01	-1.5717E00
959.30	-1.3839E00
959.60	-1.3111E00
959.89	-1.4322E00
960.19	-1.5031E00
960.48	-1.6446E00
960.78	-1.3897E00
961.07	-1.3370E00
961.37	-1.4680E00
961.66	-1.4040E00
961.95	-1.4706E00
962.25	-1.2672E00
962.54	-1.8074E00
962.84	-1.7040E00
963.13	-1.5370E00
963.43	-1.6979E00
963.72	-1.9309E00
964.01	-1.3187E00
964.31	-1.6695E00
964.60	-1.5548E00
964.90	-1.1035E00
965.19	-1.0046E00
965.48	-1.3466E00
965.78	-1.1423E00
966.07	-1.2834E00
966.36	-1.1340E00
966.66	-1.2943E00
966.95	-1.0916E00
967.25	-1.3736E00
967.54	-1.6559E00
967.83	-1.6626E00
968.13	-1.4977E00
968.42	-1.5828E00
968.71	-1.4296E00
969.00	-1.5496E00
969.30	-1.7595E00
969.59	-1.7365E00
969.88	-1.5650E00
970.18	-1.5679E00
970.47	-1.7222E00
970.76	-1.8083E00
971.05	-1.7947E00
971.35	-1.8613E00
971.64	-1.6027E00
971.93	-1.8744E00
972.23	-2.1373E00
972.52	-1.8946E00
972.81	-1.5334E00
973.10	-1.5049E00
973.39	-1.5836E00
973.69	-1.8886E00
973.98	-2.1473E00
974.27	-2.0639E00
974.56	-2.1811E00
974.86	-1.9187E00
975.15	-2.1012E00
975.44	-1.6295E00
975.73	-1.8258E00
976.02	-1.8018E00
976.31	-1.8173E00
976.61	-1.6671E00
976.90	-1.7137E00
977.19	-2.0273E00
977.48	-1.9494E00
977.77	-1.7918E00
978.06	-2.1220E00
978.35	-2.0848E00
978.65	-2.2080E00
978.94	-2.2105E00
979.23	-1.9591E00
979.52	-1.7742E00
979.81	-2.1369E00
980.10	-2.5988E00
980.39	-2.5196E00
980.68	-2.5653E00
980.97	-2.7586E00
981.27	-2.4331E00
981.56	-2.1687E00
981.85	-1.4056E00
982.14	-2.2476E00
982.43	-2.4744E00
982.72	-2.3322E00
983.01	-2.2278E00
983.30	-1.9571E00
983.59	-2.4396E00
983.88	-2.3074E00
984.17	-2.1971E00
984.46	-1.7636E00
984.75	-2.4046E00
985.04	-1.7094E00
985.33	-1.7734E00
985.62	-2.6771E00
985.91	-2.9675E00
986.20	-2.2654E00
986.49	-2.6463E00
986.78	-2.6978E00
987.07	-3.2282E00
987.36	-2.4793E00
987.65	-2.6085E00
987.94	-2.6006E00
988.23	-2.6827E00
988.52	-2.1601E00
988.81	-2.3874E00
989.10	-2.7119E00
989.38	-2.4308E00
989.67	-2.1826E00
989.96	-3.1092E00
990.25	-2.5314E00
990.54	-3.1486E00
990.83	-2.9831E00
991.12	-2.6049E00
991.41	-2.6993E00
991.70	-2.8524E00
991.99	-2.8056E00
992.27	-2.2895E00
992.56	-2.4703E00
992.85	-3.5022E00
993.14	-3.0586E00
993.43	-3.7397E00
993.72	-3.4924E00
994.00	-3.1843E00
994.29	-2.8828E00
994.58	-3.3645E00
994.87	-3.4706E00
995.16	-3.2880E00
995.45	-3.5601E00
995.73	-3.7099E00
996.02	-2.8988E00
996.31	-2.1880E00
996.60	-2.7768E00
996.89	-3.5345E00
997.17	-3.4925E00
997.46	-4.1320E00
997.75	-3.8508E00
998.04	-3.0674E00
998.32	-3.1954E00
998.61	-3.0331E00
998.90	-4.0567E00
999.19	-4.2763E00
999.47	-4.1479E00
999.76	-3.8004E00
1000.05	-3.4174E00
1000.33	-4.0405E00
1000.62	-4.3302E00
1000.91	-4.9063E00
1001.19	-4.2122E00
1001.48	-4.1008E00
1001.77	-4.5338E00
1002.06	-4.8174E00
1002.34	-4.0639E00
1002.63	-4.3124E00
1002.92	-4.6700E00
1003.20	-4.8523E00
1003.49	-4.2201E00
1003.77	-4.9594E00
1004.06	-3.9507E00
1004.35	-4.8802E00
1004.63	-4.8750E00
1004.92	-4.7351E00
1005.21	-4.8486E00
1005.49	-5.3289E00
1005.78	-5.0342E00
1006.06	-5.0411E00
1006.35	-4.8902E00
1006.64	-6.1651E00
1006.92	-4.8275E00
1007.21	-4.7441E00
1007.49	-4.3740E00
1007.78	-5.7596E00
1008.06	-4.8345E00
1008.35	-5.9773E00
1008.64	-5.4243E00
1008.92	-5.7637E00
1009.21	-5.4074E00
1009.49	-5.8198E00
1009.78	-5.4352E00
1010.06	-6.5221E00
1010.35	-5.5091E00
1010.63	-5.1209E00
1010.92	-5.5133E00
1011.20	-6.7559E00
1011.49	-6.7818E00
1011.77	-5.4372E00
1012.06	-5.9737E00
1012.34	-5.8489E00
1012.63	-6.5979E00
1012.91	-5.6221E00
1013.20	-5.8656E00
1013.48	-5.4426E00
1013.76	-5.4872E00
1014.05	-5.7478E00
1014.33	-7.2145E00
1014.62	-7.7233E00
1014.90	-6.9480E00
1015.19	-6.5864E00
1015.47	-6.9904E00
1015.75	-6.8704E00
1016.04	-7.1323E00
1016.32	-5.8186E00
1016.61	-5.9640E00
1016.89	-7.9023E00
1017.17	-8.4073E00
1017.46	-7.5944E00
1017.74	-5.7112E00
1018.02	-7.6594E00
1018.31	-7.4704E00
1018.59	-8.0936E00
1018.87	-7.3226E00
1019.16	-8.9949E00
1019.44	-5.7991E00
1019.72	-7.4338E00
1020.01	-9.0419E00
1020.29	-1.0701E01
1020.57	-8.5962E00
1020.86	-8.4739E00
1021.14	-6.9252E00
1021.42	-6.9077E00
1021.71	-7.0127E00
1021.99	-9.0469E00
1022.27	-1.0863E01
1022.55	-9.4997E00
1022.84	-8.1182E00
1023.12	-1.0594E01
1023.40	-1.1713E01
1023.68	-9.7657E00
1023.97	-8.3650E00
1024.25	-7.4454E00
1024.53	-8.3801E00
1024.81	-8.3801E00
>>>>>End Processed Spectral Data<<<<<
