SpectraSuite Data File
++++++++++++++++++++++++++++++++++++
Date: Wed Oct 30 14:52:31 GMT 2013
User: WadeLab
Dark Spectrum Present: Yes
Reference Spectrum Present: No
Number of Sampled Component Spectra: 1
Spectrometers: USB2G15413
Integration Time (usec): 19000 (USB2G15413)
Spectra Averaged: 20 (USB2G15413)
Boxcar Smoothing: 0 (USB2G15413)
Correct for Electrical Dark: No (USB2G15413)
Strobe/Lamp Enabled: No (USB2G15413)
Correct for Detector Non-linearity: No (USB2G15413)
Correct for Stray Light: No (USB2G15413)
Number of Pixels in Processed Spectrum: 2048
>>>>>Begin Processed Spectral Data<<<<<
340.56	-0.0000E00
340.94	-0.0000E00
341.32	-0.0000E00
341.70	-0.0000E00
342.08	-0.0000E00
342.46	-0.0000E00
342.84	-0.0000E00
343.22	-0.0000E00
343.60	-0.0000E00
343.98	-0.0000E00
344.36	-0.0000E00
344.74	-0.0000E00
345.12	-0.0000E00
345.50	-0.0000E00
345.88	-0.0000E00
346.26	-0.0000E00
346.64	-0.0000E00
347.02	-0.0000E00
347.40	-0.0000E00
347.78	-0.0000E00
348.16	-0.0000E00
348.54	-0.0000E00
348.92	-0.0000E00
349.30	-0.0000E00
349.68	-5.6427E-01
350.06	-2.3983E-01
350.43	-2.2580E-01
350.81	-2.8460E-01
351.19	-1.6363E-01
351.57	-1.5525E-01
351.95	-1.9685E-01
352.33	-1.8208E-01
352.71	-1.2458E-01
353.09	-1.5170E-01
353.47	-1.4734E-01
353.84	-1.2399E-01
354.22	-1.2263E-01
354.60	-1.2882E-01
354.98	-1.6173E-01
355.36	-1.8880E-01
355.74	-1.6367E-01
356.12	-1.3314E-01
356.50	-1.3152E-01
356.87	-2.1411E-01
357.25	-1.4716E-01
357.63	-1.5366E-01
358.01	-1.6387E-01
358.39	-2.3861E-01
358.77	-1.9761E-01
359.14	-1.9024E-01
359.52	-2.0786E-01
359.90	-1.6554E-01
360.28	-1.5281E-01
360.66	-1.6386E-01
361.03	-1.7170E-01
361.41	-1.7925E-01
361.79	-1.7903E-01
362.17	-1.8370E-01
362.55	-1.7935E-01
362.92	-1.7154E-01
363.30	-1.3797E-01
363.68	-1.0521E-01
364.06	-1.1147E-01
364.44	-1.5228E-01
364.81	-1.2116E-01
365.19	-1.1805E-01
365.57	-1.2080E-01
365.95	-1.2962E-01
366.32	-1.4036E-01
366.70	-1.4763E-01
367.08	-1.5911E-01
367.46	-1.3805E-01
367.83	-1.5926E-01
368.21	-1.5001E-01
368.59	-1.0009E-01
368.96	-1.0489E-01
369.34	-1.4350E-01
369.72	-1.4108E-01
370.10	-1.5864E-01
370.47	-8.5471E-02
370.85	-1.0828E-01
371.23	-1.0433E-01
371.60	-7.9236E-02
371.98	-1.2900E-01
372.36	-1.2792E-01
372.73	-1.3445E-01
373.11	-1.5195E-01
373.49	-1.4661E-01
373.86	-1.1063E-01
374.24	-1.3430E-01
374.62	-1.1333E-01
374.99	-1.1836E-01
375.37	-9.6155E-02
375.75	-1.1117E-01
376.12	-1.2321E-01
376.50	-9.0485E-02
376.88	-1.1935E-01
377.25	-1.3448E-01
377.63	-1.4759E-01
378.01	-1.2272E-01
378.38	-1.0440E-01
378.76	-1.1102E-01
379.13	-1.0931E-01
379.51	-9.5919E-02
379.89	-1.1774E-01
380.26	-1.0044E-01
380.64	-1.0616E-01
381.01	-1.1181E-01
381.39	-1.2151E-01
381.77	-1.2649E-01
382.14	-1.0747E-01
382.52	-1.1121E-01
382.89	-1.1015E-01
383.27	-9.1508E-02
383.65	-9.6075E-02
384.02	-7.9177E-02
384.40	-9.6315E-02
384.77	-1.2418E-01
385.15	-1.0769E-01
385.52	-9.9444E-02
385.90	-9.6761E-02
386.27	-8.7092E-02
386.65	-6.5123E-02
387.02	-1.0932E-01
387.40	-8.5011E-02
387.78	-8.8339E-02
388.15	-8.5998E-02
388.53	-9.7245E-02
388.90	-1.2412E-01
389.28	-8.1764E-02
389.65	-7.0000E-02
390.03	-7.9076E-02
390.40	-6.7407E-02
390.78	-9.2853E-02
391.15	-1.0210E-01
391.53	-1.0411E-01
391.90	-1.0170E-01
392.28	-7.5313E-02
392.65	-8.9666E-02
393.02	-7.5002E-02
393.40	-9.4007E-02
393.77	-6.5082E-02
394.15	-5.7490E-02
394.52	-4.3979E-02
394.90	-6.3907E-02
395.27	-8.2691E-02
395.65	-7.4358E-02
396.02	-9.8872E-02
396.39	-8.4482E-02
396.77	-8.9750E-02
397.14	-6.5006E-02
397.52	-8.1965E-02
397.89	-7.9130E-02
398.27	-6.5768E-02
398.64	-7.9145E-02
399.01	-7.4665E-02
399.39	-7.9761E-02
399.76	-8.4324E-02
400.14	-7.4216E-02
400.51	-6.5925E-02
400.88	-6.6801E-02
401.26	-6.4952E-02
401.63	-6.8674E-02
402.00	-8.0569E-02
402.38	-7.9028E-02
402.75	-7.1999E-02
403.13	-6.8679E-02
403.50	-6.4895E-02
403.87	-4.8748E-02
404.25	-5.2665E-02
404.62	-5.5105E-02
404.99	-5.1628E-02
405.37	-5.5958E-02
405.74	-5.7541E-02
406.11	-7.9345E-02
406.49	-6.2247E-02
406.86	-6.3822E-02
407.23	-6.7350E-02
407.61	-4.6262E-02
407.98	-6.3768E-02
408.35	-6.7546E-02
408.72	-6.4980E-02
409.10	-5.9781E-02
409.47	-7.3578E-02
409.84	-5.2206E-02
410.22	-5.7626E-02
410.59	-5.6076E-02
410.96	-5.1030E-02
411.33	-4.9485E-02
411.71	-5.5526E-02
412.08	-6.3788E-02
412.45	-7.2575E-02
412.83	-4.8702E-02
413.20	-4.1409E-02
413.57	-5.1834E-02
413.94	-5.7725E-02
414.32	-5.6956E-02
414.69	-6.8031E-02
415.06	-3.5894E-02
415.43	-4.9664E-02
415.80	-5.2672E-02
416.18	-5.3282E-02
416.55	-5.5033E-02
416.92	-5.0464E-02
417.29	-6.3984E-02
417.66	-5.5721E-02
418.04	-4.7931E-02
418.41	-5.3478E-02
418.78	-4.7054E-02
419.15	-3.6513E-02
419.52	-4.2083E-02
419.90	-4.9717E-02
420.27	-4.8942E-02
420.64	-4.2900E-02
421.01	-4.4277E-02
421.38	-5.6088E-02
421.75	-4.8606E-02
422.13	-5.5352E-02
422.50	-3.6972E-02
422.87	-4.3239E-02
423.24	-4.8668E-02
423.61	-4.0745E-02
423.98	-4.8346E-02
424.35	-4.8086E-02
424.73	-4.8304E-02
425.10	-5.1059E-02
425.47	-5.0096E-02
425.84	-4.5584E-02
426.21	-4.5088E-02
426.58	-3.1182E-02
426.95	-3.7637E-02
427.32	-5.2717E-02
427.69	-4.4728E-02
428.06	-3.4110E-02
428.44	-3.9867E-02
428.81	-3.2652E-02
429.18	-3.2605E-02
429.55	-3.2400E-02
429.92	-3.1957E-02
430.29	-4.0541E-02
430.66	-4.7716E-02
431.03	-5.0073E-02
431.40	-4.2193E-02
431.77	-3.5111E-02
432.14	-3.9040E-02
432.51	-4.1979E-02
432.88	-5.0695E-02
433.25	-3.9646E-02
433.62	-3.7915E-02
433.99	-3.8123E-02
434.36	-3.4782E-02
434.73	-2.9931E-02
435.10	-3.6783E-02
435.47	-3.7325E-02
435.84	-2.9011E-02
436.21	-2.8859E-02
436.58	-3.3928E-02
436.95	-4.2786E-02
437.32	-4.0183E-02
437.69	-3.9607E-02
438.06	-3.9621E-02
438.43	-3.8286E-02
438.80	-3.7493E-02
439.17	-4.2777E-02
439.54	-3.5901E-02
439.91	-3.2692E-02
440.28	-3.5978E-02
440.65	-4.0655E-02
441.02	-4.0401E-02
441.39	-3.6696E-02
441.76	-2.9245E-02
442.13	-2.5659E-02
442.50	-3.3476E-02
442.87	-4.2882E-02
443.24	-2.8134E-02
443.61	-2.8990E-02
443.97	-3.5780E-02
444.34	-3.3251E-02
444.71	-3.2699E-02
445.08	-2.0361E-02
445.45	-3.2454E-02
445.82	-2.5128E-02
446.19	-1.7107E-02
446.56	-2.9405E-02
446.93	-3.0572E-02
447.29	-3.2273E-02
447.66	-2.7087E-02
448.03	-3.3092E-02
448.40	-3.0106E-02
448.77	-2.7533E-02
449.14	-3.6992E-02
449.51	-3.2846E-02
449.87	-3.2592E-02
450.24	-3.4206E-02
450.61	-2.2987E-02
450.98	-2.2015E-02
451.35	-2.4930E-02
451.72	-2.7115E-02
452.08	-2.5302E-02
452.45	-2.7734E-02
452.82	-3.0700E-02
453.19	-2.5682E-02
453.56	-2.3776E-02
453.92	-2.8721E-02
454.29	-2.2189E-02
454.66	-1.8400E-02
455.03	-1.8145E-02
455.40	-2.2955E-02
455.76	-2.5464E-02
456.13	-1.7688E-02
456.50	-3.2249E-02
456.87	-2.1970E-02
457.24	-1.3456E-02
457.60	-1.4383E-02
457.97	-1.6376E-02
458.34	-1.8977E-02
458.71	-1.3278E-02
459.07	-2.6108E-02
459.44	-2.7459E-02
459.81	-1.4456E-02
460.17	-1.4847E-02
460.54	-2.0761E-02
460.91	-2.3949E-02
461.28	-2.2425E-02
461.64	-1.9936E-02
462.01	-1.9659E-02
462.38	-1.1562E-02
462.74	-1.5460E-02
463.11	-1.7667E-02
463.48	-1.8599E-02
463.85	-1.3255E-02
464.21	-2.1430E-02
464.58	-2.2528E-02
464.95	-9.2878E-03
465.31	-6.7415E-03
465.68	-1.0667E-02
466.05	-1.2316E-02
466.41	-8.5230E-03
466.78	-5.3288E-03
467.15	-9.9695E-03
467.51	-1.8692E-02
467.88	-1.6202E-02
468.24	-1.5229E-02
468.61	-1.2577E-02
468.98	-5.3910E-03
469.34	-1.4789E-02
469.71	-1.3906E-02
470.08	-5.9266E-04
470.44	1.7527E-03
470.81	-7.1724E-03
471.17	-4.0680E-03
471.54	-4.8016E-03
471.91	-1.2273E-02
472.27	-3.9567E-03
472.64	1.3922E-03
473.00	-6.9716E-03
473.37	-4.3380E-03
473.74	-1.1206E-02
474.10	-2.9934E-03
474.47	-2.6617E-03
474.83	-7.8622E-03
475.20	-2.1562E-03
475.56	3.4024E-03
475.93	-1.0601E-03
476.29	-5.9370E-03
476.66	-7.9908E-03
477.03	-5.0391E-04
477.39	4.1275E-03
477.76	1.5536E-03
478.12	5.0926E-04
478.49	5.0802E-04
478.85	2.4746E-04
479.22	2.4913E-03
479.58	5.2377E-03
479.95	7.3366E-03
480.31	1.2311E-02
480.68	1.4714E-02
481.04	8.9082E-03
481.41	1.3242E-02
481.77	1.0302E-02
482.14	1.1447E-02
482.50	8.7572E-03
482.87	1.3489E-02
483.23	2.0955E-02
483.59	1.9340E-02
483.96	1.4798E-02
484.32	2.1273E-02
484.69	2.2225E-02
485.05	1.5383E-02
485.42	2.0439E-02
485.78	2.4527E-02
486.15	2.9707E-02
486.51	2.6639E-02
486.87	2.7974E-02
487.24	3.3242E-02
487.60	3.0704E-02
487.97	2.7934E-02
488.33	3.2021E-02
488.70	3.8097E-02
489.06	3.5857E-02
489.42	4.0453E-02
489.79	4.2872E-02
490.15	4.2357E-02
490.51	4.0730E-02
490.88	4.6619E-02
491.24	5.6081E-02
491.61	5.7262E-02
491.97	5.5040E-02
492.33	5.2612E-02
492.70	5.7868E-02
493.06	5.4063E-02
493.42	6.4714E-02
493.79	7.0261E-02
494.15	7.1497E-02
494.51	6.8910E-02
494.88	7.6175E-02
495.24	7.9474E-02
495.60	8.1914E-02
495.97	8.6401E-02
496.33	8.4032E-02
496.69	8.4579E-02
497.06	9.2454E-02
497.42	9.2478E-02
497.78	9.6787E-02
498.14	1.0161E-01
498.51	1.0469E-01
498.87	1.0882E-01
499.23	1.2030E-01
499.60	1.1545E-01
499.96	1.2392E-01
500.32	1.2404E-01
500.68	1.2266E-01
501.05	1.3326E-01
501.41	1.3638E-01
501.77	1.4510E-01
502.13	1.5218E-01
502.50	1.5907E-01
502.86	1.6018E-01
503.22	1.6554E-01
503.58	1.6566E-01
503.95	1.8044E-01
504.31	1.8147E-01
504.67	1.8975E-01
505.03	1.9565E-01
505.39	1.9151E-01
505.76	1.9967E-01
506.12	2.1063E-01
506.48	2.2198E-01
506.84	2.2472E-01
507.20	2.3440E-01
507.57	2.3802E-01
507.93	2.4315E-01
508.29	2.4340E-01
508.65	2.5613E-01
509.01	2.6903E-01
509.37	2.6820E-01
509.74	2.7417E-01
510.10	2.8168E-01
510.46	2.8990E-01
510.82	2.9975E-01
511.18	3.0282E-01
511.54	3.1377E-01
511.90	3.1408E-01
512.27	3.2759E-01
512.63	3.3190E-01
512.99	3.3696E-01
513.35	3.4521E-01
513.71	3.5312E-01
514.07	3.5614E-01
514.43	3.6522E-01
514.79	3.7503E-01
515.15	3.8594E-01
515.52	3.8569E-01
515.88	3.9444E-01
516.24	4.0412E-01
516.60	4.1289E-01
516.96	4.1307E-01
517.32	4.3491E-01
517.68	4.3874E-01
518.04	4.4434E-01
518.40	4.4478E-01
518.76	4.5872E-01
519.12	4.6756E-01
519.48	4.6917E-01
519.84	4.8103E-01
520.20	4.8571E-01
520.56	4.8405E-01
520.92	5.0395E-01
521.28	5.0989E-01
521.64	5.1577E-01
522.00	5.2048E-01
522.36	5.2942E-01
522.72	5.4874E-01
523.08	5.3788E-01
523.44	5.3404E-01
523.80	5.4514E-01
524.16	5.5300E-01
524.52	5.5799E-01
524.88	5.6329E-01
525.24	5.6834E-01
525.60	5.7932E-01
525.96	5.8540E-01
526.32	5.8220E-01
526.68	5.8691E-01
527.04	5.7830E-01
527.40	5.9452E-01
527.76	5.9718E-01
528.12	5.9408E-01
528.48	5.9913E-01
528.84	6.0287E-01
529.20	6.1760E-01
529.56	5.9749E-01
529.91	6.0222E-01
530.27	6.1037E-01
530.63	6.0505E-01
530.99	6.1667E-01
531.35	6.1271E-01
531.71	6.0063E-01
532.07	6.0977E-01
532.43	6.0096E-01
532.79	5.9847E-01
533.15	6.0078E-01
533.50	6.0197E-01
533.86	5.9953E-01
534.22	5.8603E-01
534.58	5.8306E-01
534.94	5.9085E-01
535.30	5.8262E-01
535.66	5.7398E-01
536.01	5.6817E-01
536.37	5.6407E-01
536.73	5.5528E-01
537.09	5.5024E-01
537.45	5.4781E-01
537.81	5.4418E-01
538.16	5.3682E-01
538.52	5.4814E-01
538.88	5.2884E-01
539.24	5.2161E-01
539.60	5.0152E-01
539.95	5.0390E-01
540.31	4.9905E-01
540.67	4.8912E-01
541.03	4.9318E-01
541.38	4.8521E-01
541.74	4.7682E-01
542.10	4.6559E-01
542.46	4.6490E-01
542.82	4.5878E-01
543.17	4.5147E-01
543.53	4.5043E-01
543.89	4.4290E-01
544.25	4.3241E-01
544.60	4.2958E-01
544.96	4.1811E-01
545.32	4.1528E-01
545.67	4.1065E-01
546.03	4.1160E-01
546.39	3.9907E-01
546.75	3.9699E-01
547.10	3.9193E-01
547.46	3.9006E-01
547.82	3.7519E-01
548.17	3.7698E-01
548.53	3.7596E-01
548.89	3.6192E-01
549.24	3.5901E-01
549.60	3.4689E-01
549.96	3.4486E-01
550.31	3.3351E-01
550.67	3.2560E-01
551.03	3.3478E-01
551.38	3.3595E-01
551.74	3.2692E-01
552.10	3.1695E-01
552.45	3.0081E-01
552.81	3.1757E-01
553.17	3.0651E-01
553.52	2.9562E-01
553.88	2.9453E-01
554.23	2.8380E-01
554.59	2.9052E-01
554.95	2.8133E-01
555.30	2.8633E-01
555.66	2.8106E-01
556.02	2.7209E-01
556.37	2.6471E-01
556.73	2.6072E-01
557.08	2.5693E-01
557.44	2.5590E-01
557.79	2.5545E-01
558.15	2.4679E-01
558.51	2.3621E-01
558.86	2.3804E-01
559.22	2.3255E-01
559.57	2.3631E-01
559.93	2.2796E-01
560.28	2.2403E-01
560.64	2.1951E-01
560.99	2.2176E-01
561.35	2.0065E-01
561.70	2.0276E-01
562.06	2.0090E-01
562.41	2.0055E-01
562.77	1.9292E-01
563.13	1.8658E-01
563.48	1.7947E-01
563.84	1.8016E-01
564.19	1.8574E-01
564.54	1.8080E-01
564.90	1.6326E-01
565.25	1.6416E-01
565.61	1.5939E-01
565.96	1.5024E-01
566.32	1.4961E-01
566.67	1.4480E-01
567.03	1.4766E-01
567.38	1.4083E-01
567.74	1.3497E-01
568.09	1.4197E-01
568.45	1.2496E-01
568.80	1.1910E-01
569.15	1.1450E-01
569.51	1.2324E-01
569.86	1.2160E-01
570.22	1.1133E-01
570.57	1.0605E-01
570.93	1.0183E-01
571.28	9.9396E-02
571.63	9.6143E-02
571.99	8.6756E-02
572.34	8.7479E-02
572.70	9.6191E-02
573.05	8.6996E-02
573.40	8.4519E-02
573.76	7.7762E-02
574.11	7.6586E-02
574.46	8.0479E-02
574.82	7.2017E-02
575.17	7.5236E-02
575.53	6.4891E-02
575.88	6.5546E-02
576.23	6.7125E-02
576.59	6.0878E-02
576.94	6.0114E-02
577.29	6.1309E-02
577.65	5.7502E-02
578.00	5.9412E-02
578.35	5.2658E-02
578.70	5.1108E-02
579.06	5.0060E-02
579.41	4.4030E-02
579.76	4.1353E-02
580.12	4.3355E-02
580.47	3.6844E-02
580.82	3.7279E-02
581.18	3.6271E-02
581.53	3.5554E-02
581.88	4.1452E-02
582.23	3.2120E-02
582.59	2.3726E-02
582.94	2.1321E-02
583.29	2.6375E-02
583.64	2.8678E-02
584.00	2.4604E-02
584.35	2.2621E-02
584.70	1.8089E-02
585.05	2.8918E-02
585.41	2.1108E-02
585.76	2.4358E-02
586.11	2.2179E-02
586.46	2.3932E-02
586.81	1.6405E-02
587.17	1.8518E-02
587.52	7.3640E-03
587.87	1.1114E-02
588.22	1.0381E-02
588.57	9.8079E-03
588.93	9.5952E-03
589.28	4.6331E-03
589.63	9.2490E-04
589.98	7.0618E-03
590.33	6.2258E-04
590.68	3.0816E-03
591.04	-3.0813E-04
591.39	-1.2382E-03
591.74	1.5469E-03
592.09	-6.5009E-03
592.44	-9.5206E-03
592.79	-5.2759E-03
593.14	-8.6209E-03
593.50	-1.0850E-02
593.85	-1.0518E-02
594.20	-4.0040E-03
594.55	-3.3855E-03
594.90	-1.5119E-02
595.25	-2.4060E-02
595.60	-2.4194E-02
595.95	-2.2464E-02
596.30	-1.9938E-02
596.66	-1.0659E-02
597.01	-2.0108E-02
597.36	-1.7602E-02
597.71	-1.8978E-02
598.06	-2.5805E-02
598.41	-3.3329E-02
598.76	-3.5219E-02
599.11	-3.5476E-02
599.46	-2.9372E-02
599.81	-3.3060E-02
600.16	-3.1590E-02
600.51	-3.2289E-02
600.86	-2.9959E-02
601.21	-3.6604E-02
601.56	-3.6486E-02
601.91	-3.5381E-02
602.26	-3.5141E-02
602.61	-3.2767E-02
602.96	-3.6841E-02
603.31	-4.2416E-02
603.66	-4.2842E-02
604.01	-3.5780E-02
604.36	-3.5676E-02
604.71	-4.7769E-02
605.06	-4.6482E-02
605.41	-5.2320E-02
605.76	-4.9150E-02
606.11	-4.3965E-02
606.46	-4.6595E-02
606.81	-4.8878E-02
607.16	-4.5531E-02
607.51	-4.5249E-02
607.86	-4.8853E-02
608.21	-5.3886E-02
608.56	-6.1139E-02
608.91	-5.9036E-02
609.26	-6.5104E-02
609.61	-7.2409E-02
609.95	-7.6981E-02
610.30	-9.4632E-02
610.65	-1.2063E-01
611.00	-1.5577E-01
611.35	-2.0037E-01
611.70	-2.1528E-01
612.05	-2.0607E-01
612.40	-1.8759E-01
612.75	-1.5658E-01
613.09	-1.4867E-01
613.44	-1.3834E-01
613.79	-1.2705E-01
614.14	-1.1002E-01
614.49	-1.0945E-01
614.84	-1.1555E-01
615.19	-1.0992E-01
615.53	-1.0299E-01
615.88	-9.2346E-02
616.23	-9.5153E-02
616.58	-8.5291E-02
616.93	-8.4939E-02
617.28	-8.0833E-02
617.62	-7.9359E-02
617.97	-7.8146E-02
618.32	-7.8145E-02
618.67	-7.4170E-02
619.02	-8.3207E-02
619.36	-8.9159E-02
619.71	-8.7007E-02
620.06	-8.4121E-02
620.41	-8.1760E-02
620.76	-8.2296E-02
621.10	-8.4142E-02
621.45	-8.1835E-02
621.80	-8.5072E-02
622.15	-8.5899E-02
622.49	-8.2487E-02
622.84	-9.4165E-02
623.19	-9.1433E-02
623.54	-8.6117E-02
623.88	-8.2633E-02
624.23	-7.7606E-02
624.58	-8.0250E-02
624.92	-7.2951E-02
625.27	-8.2633E-02
625.62	-8.2295E-02
625.97	-8.4709E-02
626.31	-8.8028E-02
626.66	-8.8848E-02
627.01	-9.8994E-02
627.35	-1.0007E-01
627.70	-9.2046E-02
628.05	-8.8860E-02
628.39	-8.6932E-02
628.74	-8.2861E-02
629.09	-8.4604E-02
629.43	-8.9717E-02
629.78	-9.5852E-02
630.13	-1.0530E-01
630.47	-1.0427E-01
630.82	-1.1640E-01
631.17	-1.1422E-01
631.51	-1.1337E-01
631.86	-1.1482E-01
632.20	-1.0598E-01
632.55	-1.0006E-01
632.90	-9.3453E-02
633.24	-9.5870E-02
633.59	-9.1354E-02
633.94	-9.1710E-02
634.28	-8.6211E-02
634.63	-8.0024E-02
634.97	-7.9088E-02
635.32	-8.2371E-02
635.66	-8.9354E-02
636.01	-8.0194E-02
636.36	-8.0923E-02
636.70	-8.3680E-02
637.05	-8.7187E-02
637.39	-8.1524E-02
637.74	-8.3015E-02
638.08	-8.2843E-02
638.43	-7.8438E-02
638.77	-8.3776E-02
639.12	-8.1611E-02
639.46	-8.0445E-02
639.81	-8.9376E-02
640.15	-8.8483E-02
640.50	-8.4270E-02
640.85	-8.5700E-02
641.19	-9.4043E-02
641.54	-8.9979E-02
641.88	-7.8530E-02
642.22	-8.9030E-02
642.57	-7.9656E-02
642.91	-7.7226E-02
643.26	-8.8348E-02
643.60	-8.6574E-02
643.95	-8.5005E-02
644.29	-8.5237E-02
644.64	-8.7774E-02
644.98	-9.1656E-02
645.33	-8.4475E-02
645.67	-9.3471E-02
646.02	-8.8134E-02
646.36	-9.0287E-02
646.70	-8.5968E-02
647.05	-9.7509E-02
647.39	-9.0119E-02
647.74	-7.8434E-02
648.08	-8.8050E-02
648.42	-9.0752E-02
648.77	-9.2433E-02
649.11	-8.3140E-02
649.46	-8.0210E-02
649.80	-7.4848E-02
650.14	-8.5752E-02
650.49	-8.8386E-02
650.83	-9.3551E-02
651.18	-1.0171E-01
651.52	-9.5182E-02
651.86	-9.5121E-02
652.21	-9.7944E-02
652.55	-9.4546E-02
652.89	-8.8277E-02
653.24	-8.6048E-02
653.58	-8.8414E-02
653.92	-8.8554E-02
654.27	-9.9469E-02
654.61	-9.6826E-02
654.95	-9.0937E-02
655.30	-8.6567E-02
655.64	-8.8937E-02
655.98	-8.7442E-02
656.33	-8.9541E-02
656.67	-8.2291E-02
657.01	-7.4053E-02
657.35	-8.2124E-02
657.70	-7.4158E-02
658.04	-8.6010E-02
658.38	-8.5191E-02
658.73	-7.9032E-02
659.07	-9.2368E-02
659.41	-9.4760E-02
659.75	-9.2198E-02
660.10	-8.1075E-02
660.44	-7.9918E-02
660.78	-9.7727E-02
661.12	-9.2541E-02
661.46	-8.9996E-02
661.81	-9.4329E-02
662.15	-9.9491E-02
662.49	-9.4457E-02
662.83	-1.0504E-01
663.18	-1.0588E-01
663.52	-1.1011E-01
663.86	-1.0043E-01
664.20	-1.0371E-01
664.54	-1.0340E-01
664.88	-9.3847E-02
665.23	-9.4661E-02
665.57	-8.7052E-02
665.91	-9.1732E-02
666.25	-9.1172E-02
666.59	-1.0302E-01
666.93	-1.0838E-01
667.28	-9.8238E-02
667.62	-9.7535E-02
667.96	-9.6360E-02
668.30	-9.3975E-02
668.64	-9.5396E-02
668.98	-9.7171E-02
669.32	-1.0266E-01
669.67	-9.3773E-02
670.01	-1.0022E-01
670.35	-1.0331E-01
670.69	-1.0145E-01
671.03	-1.0156E-01
671.37	-1.0958E-01
671.71	-9.5475E-02
672.05	-8.9411E-02
672.39	-1.0119E-01
672.73	-1.0763E-01
673.07	-9.7878E-02
673.42	-1.0030E-01
673.76	-9.9728E-02
674.10	-1.0361E-01
674.44	-9.9258E-02
674.78	-9.8868E-02
675.12	-1.0268E-01
675.46	-1.0685E-01
675.80	-1.0553E-01
676.14	-1.0461E-01
676.48	-1.0256E-01
676.82	-1.0889E-01
677.16	-1.0424E-01
677.50	-1.0474E-01
677.84	-8.8758E-02
678.18	-1.0196E-01
678.52	-9.8122E-02
678.86	-9.7887E-02
679.20	-9.7131E-02
679.54	-1.0332E-01
679.88	-1.0574E-01
680.22	-1.0199E-01
680.56	-9.0950E-02
680.90	-9.6125E-02
681.24	-9.8772E-02
681.58	-9.2776E-02
681.92	-9.1803E-02
682.26	-9.3035E-02
682.60	-9.6007E-02
682.93	-1.0337E-01
683.27	-1.0478E-01
683.61	-9.8104E-02
683.95	-1.1840E-01
684.29	-1.1595E-01
684.63	-1.1439E-01
684.97	-9.9049E-02
685.31	-9.9747E-02
685.65	-1.0592E-01
685.99	-1.1195E-01
686.33	-1.0528E-01
686.66	-9.6659E-02
687.00	-1.0367E-01
687.34	-1.0350E-01
687.68	-1.0322E-01
688.02	-9.8799E-02
688.36	-1.0982E-01
688.70	-1.1225E-01
689.03	-1.1713E-01
689.37	-1.0623E-01
689.71	-1.0338E-01
690.05	-1.1815E-01
690.39	-1.1437E-01
690.73	-1.0213E-01
691.06	-1.1462E-01
691.40	-1.0503E-01
691.74	-1.0306E-01
692.08	-1.1066E-01
692.42	-1.1576E-01
692.75	-9.2986E-02
693.09	-1.2275E-01
693.43	-1.3495E-01
693.77	-1.1905E-01
694.11	-1.1011E-01
694.44	-9.0988E-02
694.78	-1.0952E-01
695.12	-1.1607E-01
695.46	-1.0740E-01
695.79	-1.0242E-01
696.13	-1.1949E-01
696.47	-1.0826E-01
696.81	-1.1109E-01
697.14	-9.5886E-02
697.48	-9.7723E-02
697.82	-1.1781E-01
698.16	-1.2746E-01
698.49	-1.2603E-01
698.83	-1.1215E-01
699.17	-1.1905E-01
699.50	-1.0138E-01
699.84	-9.9945E-02
700.18	-9.7963E-02
700.51	-1.1285E-01
700.85	-1.0525E-01
701.19	-1.0626E-01
701.52	-1.1317E-01
701.86	-1.1652E-01
702.20	-1.2126E-01
702.53	-1.2284E-01
702.87	-1.3260E-01
703.21	-1.3819E-01
703.54	-1.3210E-01
703.88	-1.2208E-01
704.22	-1.1975E-01
704.55	-1.2076E-01
704.89	-1.2218E-01
705.23	-1.2500E-01
705.56	-1.2069E-01
705.90	-1.3571E-01
706.23	-1.3629E-01
706.57	-1.3121E-01
706.91	-1.4734E-01
707.24	-1.5226E-01
707.58	-1.5898E-01
707.91	-1.5502E-01
708.25	-1.6177E-01
708.58	-1.6427E-01
708.92	-1.7815E-01
709.26	-1.6558E-01
709.59	-1.5056E-01
709.93	-1.3317E-01
710.26	-1.5128E-01
710.60	-1.3746E-01
710.93	-1.4176E-01
711.27	-1.5181E-01
711.60	-1.4345E-01
711.94	-1.4595E-01
712.27	-1.6613E-01
712.61	-1.6591E-01
712.95	-1.6516E-01
713.28	-1.5504E-01
713.62	-1.6192E-01
713.95	-1.5053E-01
714.28	-1.5264E-01
714.62	-1.4524E-01
714.95	-1.4851E-01
715.29	-1.2742E-01
715.62	-1.2835E-01
715.96	-1.2743E-01
716.29	-1.3214E-01
716.63	-1.2676E-01
716.96	-1.3076E-01
717.30	-1.2616E-01
717.63	-1.1831E-01
717.97	-1.1495E-01
718.30	-1.0828E-01
718.63	-1.0653E-01
718.97	-9.6512E-02
719.30	-9.6567E-02
719.64	-9.5364E-02
719.97	-1.0978E-01
720.31	-1.1523E-01
720.64	-1.1902E-01
720.97	-1.1918E-01
721.31	-1.0941E-01
721.64	-1.2897E-01
721.97	-1.0198E-01
722.31	-1.2972E-01
722.64	-1.2413E-01
722.98	-1.0255E-01
723.31	-1.0924E-01
723.64	-1.3063E-01
723.98	-1.3014E-01
724.31	-1.2442E-01
724.64	-1.3365E-01
724.98	-1.2461E-01
725.31	-1.3064E-01
725.64	-1.2366E-01
725.98	-1.1750E-01
726.31	-1.1138E-01
726.64	-1.2946E-01
726.98	-1.6147E-01
727.31	-1.2501E-01
727.64	-1.2454E-01
727.97	-1.3057E-01
728.31	-1.2807E-01
728.64	-1.2778E-01
728.97	-1.2737E-01
729.31	-1.0965E-01
729.64	-1.1012E-01
729.97	-1.2456E-01
730.30	-1.2898E-01
730.64	-1.3274E-01
730.97	-1.3431E-01
731.30	-1.5830E-01
731.63	-1.4248E-01
731.97	-1.5242E-01
732.30	-1.4390E-01
732.63	-1.3611E-01
732.96	-1.3946E-01
733.29	-1.4012E-01
733.63	-1.3168E-01
733.96	-1.4882E-01
734.29	-1.5052E-01
734.62	-1.5874E-01
734.96	-1.5557E-01
735.29	-1.5299E-01
735.62	-1.3568E-01
735.95	-1.1898E-01
736.28	-1.2892E-01
736.61	-1.4313E-01
736.95	-1.4909E-01
737.28	-1.5381E-01
737.61	-1.6666E-01
737.94	-1.5368E-01
738.27	-1.5039E-01
738.60	-1.3989E-01
738.93	-1.6749E-01
739.27	-1.4262E-01
739.60	-1.5426E-01
739.93	-1.4680E-01
740.26	-1.5932E-01
740.59	-1.5366E-01
740.92	-1.4962E-01
741.25	-1.4662E-01
741.58	-1.3491E-01
741.91	-1.4383E-01
742.24	-1.4768E-01
742.58	-1.4273E-01
742.91	-1.5354E-01
743.24	-1.6980E-01
743.57	-1.8142E-01
743.90	-1.6726E-01
744.23	-1.5080E-01
744.56	-1.6230E-01
744.89	-1.6919E-01
745.22	-1.3290E-01
745.55	-1.4242E-01
745.88	-1.7596E-01
746.21	-1.6495E-01
746.54	-1.6392E-01
746.87	-1.5415E-01
747.20	-1.9642E-01
747.53	-1.6399E-01
747.86	-1.5659E-01
748.19	-1.4415E-01
748.52	-1.5344E-01
748.85	-1.5944E-01
749.18	-1.6048E-01
749.51	-1.5250E-01
749.84	-1.7821E-01
750.17	-1.7277E-01
750.50	-1.8050E-01
750.83	-1.6024E-01
751.16	-1.6341E-01
751.49	-1.5460E-01
751.82	-1.4921E-01
752.15	-1.6680E-01
752.48	-1.6198E-01
752.81	-1.5300E-01
753.14	-1.6844E-01
753.46	-1.8634E-01
753.79	-1.8698E-01
754.12	-1.6159E-01
754.45	-1.5647E-01
754.78	-1.5059E-01
755.11	-1.3164E-01
755.44	-1.5569E-01
755.77	-1.4962E-01
756.10	-1.7438E-01
756.42	-1.8307E-01
756.75	-1.9464E-01
757.08	-1.7894E-01
757.41	-1.6618E-01
757.74	-1.5598E-01
758.07	-1.6051E-01
758.40	-1.6423E-01
758.72	-1.6880E-01
759.05	-1.7542E-01
759.38	-1.6170E-01
759.71	-1.5558E-01
760.04	-1.3148E-01
760.37	-1.1871E-01
760.69	-1.1033E-01
761.02	-9.9423E-02
761.35	-1.1765E-01
761.68	-1.3640E-01
762.01	-1.2103E-01
762.33	-1.2575E-01
762.66	-1.3352E-01
762.99	-1.3801E-01
763.32	-1.4634E-01
763.64	-1.5791E-01
763.97	-1.3878E-01
764.30	-1.1862E-01
764.63	-1.6337E-01
764.95	-1.5193E-01
765.28	-1.7581E-01
765.61	-1.5151E-01
765.94	-1.4940E-01
766.26	-1.6292E-01
766.59	-1.5067E-01
766.92	-1.7383E-01
767.25	-1.7862E-01
767.57	-1.4746E-01
767.90	-1.8682E-01
768.23	-1.9943E-01
768.55	-1.8374E-01
768.88	-1.7440E-01
769.21	-1.8180E-01
769.53	-1.9165E-01
769.86	-1.9695E-01
770.19	-1.8929E-01
770.51	-1.8470E-01
770.84	-1.8918E-01
771.17	-1.9208E-01
771.49	-1.7466E-01
771.82	-1.8695E-01
772.15	-2.1377E-01
772.47	-2.0103E-01
772.80	-2.2271E-01
773.13	-1.9568E-01
773.45	-2.3041E-01
773.78	-1.8641E-01
774.10	-1.9518E-01
774.43	-1.9612E-01
774.76	-2.0140E-01
775.08	-2.2786E-01
775.41	-2.4263E-01
775.73	-2.2569E-01
776.06	-2.2924E-01
776.38	-2.2449E-01
776.71	-2.1239E-01
777.04	-2.1813E-01
777.36	-2.1323E-01
777.69	-1.9787E-01
778.01	-2.0348E-01
778.34	-2.0115E-01
778.66	-1.9373E-01
778.99	-1.9622E-01
779.31	-2.2003E-01
779.64	-2.3391E-01
779.96	-2.1918E-01
780.29	-2.1257E-01
780.61	-2.1192E-01
780.94	-1.9291E-01
781.26	-1.9128E-01
781.59	-1.8414E-01
781.91	-2.1329E-01
782.24	-2.0357E-01
782.56	-1.8908E-01
782.89	-2.0778E-01
783.21	-2.1701E-01
783.54	-2.1967E-01
783.86	-2.2952E-01
784.19	-2.3983E-01
784.51	-2.1341E-01
784.84	-2.0914E-01
785.16	-2.3026E-01
785.48	-2.1623E-01
785.81	-2.0436E-01
786.13	-2.0110E-01
786.46	-2.5510E-01
786.78	-2.5671E-01
787.11	-2.5462E-01
787.43	-2.2748E-01
787.75	-2.2150E-01
788.08	-2.4001E-01
788.40	-2.1776E-01
788.73	-2.1230E-01
789.05	-2.0858E-01
789.37	-2.5695E-01
789.70	-2.5050E-01
790.02	-2.4168E-01
790.34	-2.6640E-01
790.67	-2.2010E-01
790.99	-2.3808E-01
791.31	-2.0179E-01
791.64	-1.9918E-01
791.96	-1.9779E-01
792.28	-2.0735E-01
792.61	-2.1611E-01
792.93	-2.2506E-01
793.25	-2.1322E-01
793.58	-2.0721E-01
793.90	-1.8752E-01
794.22	-1.9077E-01
794.55	-2.1915E-01
794.87	-2.0449E-01
795.19	-2.4358E-01
795.51	-2.3386E-01
795.84	-2.1363E-01
796.16	-1.6617E-01
796.48	-2.0976E-01
796.80	-1.7720E-01
797.13	-2.0918E-01
797.45	-1.9357E-01
797.77	-2.1296E-01
798.09	-1.8333E-01
798.42	-1.9761E-01
798.74	-2.1706E-01
799.06	-2.0646E-01
799.38	-1.9807E-01
799.71	-2.0312E-01
800.03	-2.0593E-01
800.35	-2.0648E-01
800.67	-1.9999E-01
800.99	-1.9307E-01
801.32	-1.9330E-01
801.64	-2.1727E-01
801.96	-2.1435E-01
802.28	-2.0721E-01
802.60	-2.3023E-01
802.92	-1.9891E-01
803.25	-2.3953E-01
803.57	-2.1937E-01
803.89	-1.7091E-01
804.21	-1.8540E-01
804.53	-2.1578E-01
804.85	-2.3314E-01
805.17	-2.5421E-01
805.50	-2.3603E-01
805.82	-2.2657E-01
806.14	-2.1690E-01
806.46	-2.4169E-01
806.78	-2.3336E-01
807.10	-2.1837E-01
807.42	-2.4069E-01
807.74	-2.2755E-01
808.06	-2.1278E-01
808.38	-2.2627E-01
808.70	-2.1901E-01
809.03	-2.2165E-01
809.35	-2.4413E-01
809.67	-2.0210E-01
809.99	-2.1169E-01
810.31	-2.7377E-01
810.63	-2.7157E-01
810.95	-2.4312E-01
811.27	-2.0905E-01
811.59	-2.0927E-01
811.91	-2.3913E-01
812.23	-2.4543E-01
812.55	-2.4041E-01
812.87	-2.3896E-01
813.19	-2.7776E-01
813.51	-2.5839E-01
813.83	-2.2367E-01
814.15	-2.3549E-01
814.47	-2.2138E-01
814.79	-2.5202E-01
815.11	-2.0617E-01
815.43	-2.4522E-01
815.75	-2.1205E-01
816.07	-2.1435E-01
816.39	-2.6934E-01
816.71	-2.2676E-01
817.03	-2.5165E-01
817.34	-2.6273E-01
817.66	-2.7749E-01
817.98	-2.3828E-01
818.30	-2.4249E-01
818.62	-2.4699E-01
818.94	-2.5376E-01
819.26	-2.4196E-01
819.58	-2.3423E-01
819.90	-2.4099E-01
820.22	-2.6922E-01
820.54	-2.8065E-01
820.85	-2.6464E-01
821.17	-2.5616E-01
821.49	-2.3805E-01
821.81	-2.6050E-01
822.13	-2.3575E-01
822.45	-2.5649E-01
822.77	-2.6245E-01
823.08	-1.9271E-01
823.40	-2.5346E-01
823.72	-2.6975E-01
824.04	-2.4123E-01
824.36	-2.2461E-01
824.68	-2.4488E-01
824.99	-2.6446E-01
825.31	-2.5375E-01
825.63	-2.4992E-01
825.95	-2.6192E-01
826.27	-2.5926E-01
826.58	-2.2127E-01
826.90	-3.0799E-01
827.22	-2.9105E-01
827.54	-2.2096E-01
827.85	-2.0906E-01
828.17	-2.5941E-01
828.49	-2.7980E-01
828.81	-2.4505E-01
829.12	-2.3811E-01
829.44	-2.6762E-01
829.76	-2.9432E-01
830.08	-2.3442E-01
830.39	-3.0053E-01
830.71	-2.8136E-01
831.03	-2.9544E-01
831.35	-2.6149E-01
831.66	-2.1752E-01
831.98	-2.5171E-01
832.30	-3.3789E-01
832.61	-2.4931E-01
832.93	-2.5416E-01
833.25	-2.8278E-01
833.56	-2.9347E-01
833.88	-2.5850E-01
834.20	-2.9529E-01
834.51	-2.6501E-01
834.83	-2.4869E-01
835.15	-2.8649E-01
835.46	-2.7490E-01
835.78	-3.2834E-01
836.10	-2.9348E-01
836.41	-2.4852E-01
836.73	-2.1821E-01
837.04	-3.0764E-01
837.36	-2.5201E-01
837.68	-2.3354E-01
837.99	-2.4239E-01
838.31	-3.0451E-01
838.62	-3.2211E-01
838.94	-2.7885E-01
839.26	-2.8279E-01
839.57	-2.7156E-01
839.89	-3.0383E-01
840.20	-2.8899E-01
840.52	-2.5567E-01
840.83	-2.6784E-01
841.15	-3.3041E-01
841.47	-2.9665E-01
841.78	-3.0026E-01
842.10	-2.6733E-01
842.41	-2.6292E-01
842.73	-2.2391E-01
843.04	-3.2617E-01
843.36	-3.2139E-01
843.67	-2.6974E-01
843.99	-3.0998E-01
844.30	-2.7125E-01
844.62	-3.4016E-01
844.93	-2.9307E-01
845.25	-3.0416E-01
845.56	-3.0912E-01
845.88	-3.1578E-01
846.19	-2.7865E-01
846.51	-2.8317E-01
846.82	-2.8983E-01
847.14	-3.2774E-01
847.45	-3.2707E-01
847.76	-3.1468E-01
848.08	-2.9375E-01
848.39	-2.9780E-01
848.71	-3.1464E-01
849.02	-3.4316E-01
849.34	-3.8489E-01
849.65	-3.1829E-01
849.96	-3.2193E-01
850.28	-2.7646E-01
850.59	-3.4794E-01
850.91	-3.3021E-01
851.22	-3.4605E-01
851.53	-3.1453E-01
851.85	-2.7644E-01
852.16	-2.6518E-01
852.47	-3.4003E-01
852.79	-2.9000E-01
853.10	-3.1805E-01
853.41	-2.8873E-01
853.73	-3.4955E-01
854.04	-3.2388E-01
854.36	-2.9576E-01
854.67	-3.1655E-01
854.98	-3.3432E-01
855.29	-3.7681E-01
855.61	-3.1410E-01
855.92	-3.2575E-01
856.23	-2.9340E-01
856.55	-2.9090E-01
856.86	-3.4066E-01
857.17	-3.1917E-01
857.49	-2.7835E-01
857.80	-3.4379E-01
858.11	-3.4265E-01
858.42	-3.3125E-01
858.74	-3.0991E-01
859.05	-4.1261E-01
859.36	-4.2562E-01
859.67	-3.3965E-01
859.99	-3.0848E-01
860.30	-3.6687E-01
860.61	-3.6164E-01
860.92	-3.4458E-01
861.24	-3.5917E-01
861.55	-3.8750E-01
861.86	-3.7519E-01
862.17	-3.4915E-01
862.48	-3.2075E-01
862.80	-3.1820E-01
863.11	-3.1985E-01
863.42	-2.9281E-01
863.73	-2.9928E-01
864.04	-3.5581E-01
864.35	-3.3890E-01
864.67	-4.0471E-01
864.98	-4.2610E-01
865.29	-3.3415E-01
865.60	-3.7687E-01
865.91	-3.4418E-01
866.22	-3.8125E-01
866.53	-3.4565E-01
866.85	-3.7610E-01
867.16	-4.0759E-01
867.47	-4.0156E-01
867.78	-4.2554E-01
868.09	-4.1877E-01
868.40	-4.0566E-01
868.71	-4.2126E-01
869.02	-3.6415E-01
869.33	-4.2303E-01
869.65	-4.7081E-01
869.96	-4.7176E-01
870.27	-4.4026E-01
870.58	-4.1760E-01
870.89	-4.7470E-01
871.20	-4.7358E-01
871.51	-4.8458E-01
871.82	-4.6134E-01
872.13	-4.7125E-01
872.44	-3.5626E-01
872.75	-4.4046E-01
873.06	-4.4398E-01
873.37	-4.1266E-01
873.68	-4.1002E-01
873.99	-4.5588E-01
874.30	-4.4233E-01
874.61	-4.1575E-01
874.92	-4.0388E-01
875.23	-4.0998E-01
875.54	-4.9455E-01
875.85	-4.7878E-01
876.16	-4.5662E-01
876.47	-3.7649E-01
876.78	-3.3997E-01
877.09	-4.5325E-01
877.40	-4.1161E-01
877.71	-4.2343E-01
878.02	-4.9713E-01
878.33	-4.7588E-01
878.64	-4.7088E-01
878.94	-5.0997E-01
879.25	-4.7235E-01
879.56	-4.4030E-01
879.87	-5.3838E-01
880.18	-4.6985E-01
880.49	-4.6087E-01
880.80	-4.7221E-01
881.11	-5.1829E-01
881.42	-5.2510E-01
881.72	-4.3751E-01
882.03	-5.0056E-01
882.34	-5.4096E-01
882.65	-5.2847E-01
882.96	-5.1485E-01
883.27	-5.8725E-01
883.58	-5.6339E-01
883.88	-4.2494E-01
884.19	-5.6854E-01
884.50	-4.6003E-01
884.81	-3.7328E-01
885.12	-4.9277E-01
885.43	-4.2923E-01
885.73	-3.9698E-01
886.04	-5.4329E-01
886.35	-6.2093E-01
886.66	-6.3588E-01
886.97	-6.2458E-01
887.27	-5.7901E-01
887.58	-5.2502E-01
887.89	-5.4704E-01
888.20	-5.6768E-01
888.50	-4.8347E-01
888.81	-4.8582E-01
889.12	-4.6180E-01
889.43	-4.5706E-01
889.73	-5.0406E-01
890.04	-5.4288E-01
890.35	-5.2128E-01
890.66	-5.1518E-01
890.96	-5.9257E-01
891.27	-5.2026E-01
891.58	-4.8994E-01
891.88	-5.0323E-01
892.19	-5.8675E-01
892.50	-4.3518E-01
892.80	-4.9641E-01
893.11	-4.1881E-01
893.42	-4.6036E-01
893.72	-5.9543E-01
894.03	-5.7574E-01
894.34	-5.1328E-01
894.64	-5.5725E-01
894.95	-5.8068E-01
895.26	-5.5127E-01
895.56	-5.2058E-01
895.87	-4.2397E-01
896.18	-4.3589E-01
896.48	-4.2674E-01
896.79	-3.5075E-01
897.09	-4.4236E-01
897.40	-4.2056E-01
897.71	-3.9010E-01
898.01	-4.1474E-01
898.32	-4.7941E-01
898.62	-4.3296E-01
898.93	-4.3323E-01
899.24	-5.4071E-01
899.54	-6.2845E-01
899.85	-4.3414E-01
900.15	-4.6317E-01
900.46	-4.1634E-01
900.76	-4.3876E-01
901.07	-4.1507E-01
901.37	-5.7049E-01
901.68	-5.5047E-01
901.99	-6.0361E-01
902.29	-5.6572E-01
902.60	-5.5849E-01
902.90	-4.1494E-01
903.21	-4.1879E-01
903.51	-5.2094E-01
903.82	-3.9414E-01
904.12	-4.9243E-01
904.43	-6.0463E-01
904.73	-4.6444E-01
905.03	-5.5346E-01
905.34	-4.6962E-01
905.64	-4.4187E-01
905.95	-5.6529E-01
906.25	-5.7152E-01
906.56	-5.0481E-01
906.86	-4.4866E-01
907.17	-4.0940E-01
907.47	-3.6073E-01
907.78	-6.0053E-01
908.08	-6.3082E-01
908.38	-6.5565E-01
908.69	-7.1576E-01
908.99	-6.3813E-01
909.30	-5.9504E-01
909.60	-6.7042E-01
909.90	-5.0267E-01
910.21	-4.9467E-01
910.51	-6.0671E-01
910.81	-6.3663E-01
911.12	-5.5945E-01
911.42	-5.6449E-01
911.73	-3.9360E-01
912.03	-4.3853E-01
912.33	-6.1817E-01
912.64	-6.1447E-01
912.94	-5.0312E-01
913.24	-4.8730E-01
913.55	-5.4433E-01
913.85	-5.8937E-01
914.15	-6.1074E-01
914.45	-5.6159E-01
914.76	-5.9070E-01
915.06	-6.1908E-01
915.36	-5.3714E-01
915.67	-6.5371E-01
915.97	-5.6816E-01
916.27	-6.1382E-01
916.57	-4.5340E-01
916.88	-5.5291E-01
917.18	-7.2968E-01
917.48	-5.8438E-01
917.78	-7.2494E-01
918.09	-5.6319E-01
918.39	-4.6502E-01
918.69	-4.7807E-01
918.99	-5.3909E-01
919.30	-5.7063E-01
919.60	-6.4004E-01
919.90	-5.9658E-01
920.20	-5.4141E-01
920.50	-5.5283E-01
920.81	-5.4106E-01
921.11	-5.5080E-01
921.41	-5.2146E-01
921.71	-6.3995E-01
922.01	-7.6895E-01
922.32	-7.2324E-01
922.62	-6.7709E-01
922.92	-6.3837E-01
923.22	-6.2168E-01
923.52	-6.4395E-01
923.82	-5.8264E-01
924.12	-6.5969E-01
924.43	-7.0032E-01
924.73	-7.6453E-01
925.03	-7.4423E-01
925.33	-7.3509E-01
925.63	-6.8434E-01
925.93	-6.5562E-01
926.23	-5.9806E-01
926.53	-7.4515E-01
926.83	-5.8819E-01
927.13	-6.7208E-01
927.44	-6.0217E-01
927.74	-6.0108E-01
928.04	-7.2312E-01
928.34	-7.1617E-01
928.64	-8.0903E-01
928.94	-9.1112E-01
929.24	-9.6594E-01
929.54	-7.7393E-01
929.84	-6.5742E-01
930.14	-8.3655E-01
930.44	-7.8340E-01
930.74	-7.6829E-01
931.04	-8.0071E-01
931.34	-8.3385E-01
931.64	-8.4952E-01
931.94	-1.0379E00
932.24	-1.0200E00
932.54	-8.1680E-01
932.84	-9.4072E-01
933.14	-9.5535E-01
933.44	-8.4695E-01
933.74	-9.3165E-01
934.04	-8.4760E-01
934.34	-8.3727E-01
934.64	-9.4842E-01
934.94	-9.6289E-01
935.24	-1.1094E00
935.54	-1.1006E00
935.83	-1.2636E00
936.13	-1.0742E00
936.43	-1.1844E00
936.73	-1.1703E00
937.03	-1.1409E00
937.33	-1.0148E00
937.63	-1.2918E00
937.93	-9.8772E-01
938.23	-9.6909E-01
938.53	-1.1370E00
938.82	-1.2966E00
939.12	-1.3277E00
939.42	-1.5129E00
939.72	-1.2049E00
940.02	-1.1347E00
940.32	-1.3604E00
940.62	-1.1422E00
940.91	-1.2580E00
941.21	-1.3699E00
941.51	-1.2082E00
941.81	-1.2944E00
942.11	-1.1710E00
942.40	-1.4205E00
942.70	-1.2903E00
943.00	-1.5993E00
943.30	-1.8983E00
943.60	-1.9263E00
943.89	-1.6194E00
944.19	-1.2818E00
944.49	-1.3900E00
944.79	-1.7739E00
945.08	-1.9866E00
945.38	-1.9589E00
945.68	-1.7971E00
945.98	-1.6471E00
946.27	-1.8105E00
946.57	-1.2885E00
946.87	-1.5200E00
947.17	-1.6031E00
947.46	-1.6616E00
947.76	-1.6510E00
948.06	-1.5736E00
948.35	-1.7014E00
948.65	-1.9320E00
948.95	-1.9662E00
949.24	-1.9415E00
949.54	-1.7043E00
949.84	-1.4260E00
950.13	-1.3103E00
950.43	-1.6273E00
950.73	-1.6242E00
951.02	-1.5108E00
951.32	-1.5886E00
951.62	-1.7915E00
951.91	-1.5570E00
952.21	-1.4705E00
952.51	-1.4685E00
952.80	-1.1419E00
953.10	-1.3953E00
953.39	-1.7146E00
953.69	-1.2420E00
953.99	-1.3360E00
954.28	-1.6118E00
954.58	-1.6684E00
954.87	-1.7380E00
955.17	-1.8069E00
955.46	-1.1928E00
955.76	-1.3517E00
956.06	-1.2322E00
956.35	-9.1837E-01
956.65	-9.1556E-01
956.94	-1.4171E00
957.24	-1.9736E00
957.53	-1.9230E00
957.83	-1.8268E00
958.12	-1.7516E00
958.42	-1.4176E00
958.71	-1.5132E00
959.01	-1.4443E00
959.30	-1.2555E00
959.60	-1.3816E00
959.89	-1.5754E00
960.19	-1.5317E00
960.48	-1.5874E00
960.78	-1.1770E00
961.07	-1.3370E00
961.37	-1.4535E00
961.66	-1.4326E00
961.95	-1.3250E00
962.25	-1.3400E00
962.54	-1.9543E00
962.84	-1.5729E00
963.13	-1.5516E00
963.43	-1.6388E00
963.72	-1.6950E00
964.01	-1.4520E00
964.31	-1.8037E00
964.60	-1.6437E00
964.90	-1.5061E00
965.19	-1.4694E00
965.48	-1.5860E00
965.78	-1.5331E00
966.07	-1.5703E00
966.36	-1.2247E00
966.66	-1.4161E00
966.95	-1.4913E00
967.25	-1.4971E00
967.54	-1.8571E00
967.83	-1.6470E00
968.13	-1.7317E00
968.42	-1.9785E00
968.71	-1.8426E00
969.00	-1.9291E00
969.30	-2.2073E00
969.59	-1.9616E00
969.88	-1.6302E00
970.18	-1.8946E00
970.47	-2.0339E00
970.76	-2.1207E00
971.05	-1.7947E00
971.35	-1.8281E00
971.64	-1.9497E00
971.93	-1.9076E00
972.23	-2.0532E00
972.52	-2.0482E00
972.81	-1.5846E00
973.10	-1.6760E00
973.39	-1.8934E00
973.69	-1.6768E00
973.98	-1.6759E00
974.27	-1.8365E00
974.56	-2.0924E00
974.86	-1.9720E00
975.15	-2.1736E00
975.44	-1.9339E00
975.73	-2.1947E00
976.02	-2.5188E00
976.31	-2.0376E00
976.61	-2.0932E00
976.90	-2.0863E00
977.19	-2.2901E00
977.48	-2.4793E00
977.77	-1.9615E00
978.06	-1.8544E00
978.35	-1.6832E00
978.65	-2.1120E00
978.94	-1.8388E00
979.23	-1.8602E00
979.52	-2.0732E00
979.81	-2.2168E00
980.10	-2.4376E00
980.39	-2.5811E00
980.68	-2.5052E00
980.97	-2.4565E00
981.27	-2.6826E00
981.56	-2.8152E00
981.85	-2.3152E00
982.14	-2.7988E00
982.43	-2.6681E00
982.72	-1.9867E00
983.01	-2.1186E00
983.30	-1.8701E00
983.59	-2.5486E00
983.88	-2.3518E00
984.17	-2.3988E00
984.46	-2.5776E00
984.75	-2.8168E00
985.04	-2.2638E00
985.33	-2.2110E00
985.62	-2.7702E00
985.91	-2.8251E00
986.20	-2.5486E00
986.49	-3.0072E00
986.78	-2.3576E00
987.07	-2.8124E00
987.36	-2.7738E00
987.65	-2.9284E00
987.94	-2.5263E00
988.23	-2.4571E00
988.52	-2.6373E00
988.81	-2.3620E00
989.10	-2.4816E00
989.38	-2.4308E00
989.67	-2.4944E00
989.96	-3.1092E00
990.25	-2.7979E00
990.54	-3.0141E00
990.83	-2.9010E00
991.12	-2.8820E00
991.41	-3.6909E00
991.70	-2.8524E00
991.99	-3.0040E00
992.27	-2.5439E00
992.56	-3.5618E00
992.85	-3.0970E00
993.14	-3.1763E00
993.43	-3.3569E00
993.72	-3.2215E00
994.00	-3.1539E00
994.29	-3.1862E00
994.58	-3.8233E00
994.87	-3.7804E00
995.16	-4.3214E00
995.45	-3.8724E00
995.73	-3.8367E00
996.02	-3.5108E00
996.31	-2.9602E00
996.60	-3.6261E00
996.89	-3.9346E00
997.17	-4.3573E00
997.46	-4.6359E00
997.75	-3.7495E00
998.04	-3.0674E00
998.32	-3.2985E00
998.61	-3.2074E00
998.90	-4.0567E00
999.19	-4.6683E00
999.47	-4.2571E00
999.76	-3.9831E00
1000.05	-3.6774E00
1000.33	-4.1887E00
1000.62	-3.7605E00
1000.91	-4.3269E00
1001.19	-4.3654E00
1001.48	-4.6085E00
1001.77	-4.3761E00
1002.06	-4.2299E00
1002.34	-3.9432E00
1002.63	-4.3531E00
1002.92	-3.8916E00
1003.20	-4.3589E00
1003.49	-4.3442E00
1003.77	-4.6627E00
1004.06	-4.3330E00
1004.35	-4.7939E00
1004.63	-5.2232E00
1004.92	-4.8654E00
1005.21	-5.0731E00
1005.49	-5.6902E00
1005.78	-4.6185E00
1006.06	-5.4077E00
1006.35	-4.6160E00
1006.64	-5.5062E00
1006.92	-4.2651E00
1007.21	-5.6066E00
1007.49	-5.1604E00
1007.78	-5.6120E00
1008.06	-6.1801E00
1008.35	-5.8254E00
1008.64	-4.8718E00
1008.92	-5.7118E00
1009.21	-6.0314E00
1009.49	-5.6625E00
1009.78	-4.6512E00
1010.06	-7.7178E00
1010.35	-6.3733E00
1010.63	-5.6656E00
1010.92	-5.7338E00
1011.20	-7.0994E00
1011.49	-8.0048E00
1011.77	-7.6121E00
1012.06	-6.3217E00
1012.34	-6.9714E00
1012.63	-7.7867E00
1012.91	-6.3476E00
1013.20	-6.9654E00
1013.48	-5.9868E00
1013.76	-6.2355E00
1014.05	-6.1309E00
1014.33	-7.5337E00
1014.62	-9.2287E00
1014.90	-7.5436E00
1015.19	-6.1951E00
1015.47	-7.9405E00
1015.75	-7.5507E00
1016.04	-7.8867E00
1016.32	-7.3426E00
1016.61	-6.4551E00
1016.89	-8.3373E00
1017.17	-7.4811E00
1017.46	-7.7391E00
1017.74	-5.7835E00
1018.02	-8.7749E00
1018.31	-9.2060E00
1018.59	-8.5433E00
1018.87	-6.7831E00
1019.16	-7.8317E00
1019.44	-6.9745E00
1019.72	-8.3037E00
1020.01	-9.4456E00
1020.29	-8.6430E00
1020.57	-8.6789E00
1020.86	-9.5646E00
1021.14	-7.8430E00
1021.42	-8.6768E00
1021.71	-8.3980E00
1021.99	-8.9591E00
1022.27	-9.4147E00
1022.55	-9.7685E00
1022.84	-8.6718E00
1023.12	-1.1423E01
1023.40	-9.8386E00
1023.68	-9.3901E00
1023.97	-8.9289E00
1024.25	-8.8591E00
1024.53	-1.1206E01
1024.81	-1.1206E01
>>>>>End Processed Spectral Data<<<<<
