SpectraSuite Data File
++++++++++++++++++++++++++++++++++++
Date: Wed Oct 30 14:52:50 GMT 2013
User: WadeLab
Dark Spectrum Present: Yes
Reference Spectrum Present: No
Number of Sampled Component Spectra: 1
Spectrometers: USB2G15413
Integration Time (usec): 19000 (USB2G15413)
Spectra Averaged: 20 (USB2G15413)
Boxcar Smoothing: 0 (USB2G15413)
Correct for Electrical Dark: No (USB2G15413)
Strobe/Lamp Enabled: No (USB2G15413)
Correct for Detector Non-linearity: No (USB2G15413)
Correct for Stray Light: No (USB2G15413)
Number of Pixels in Processed Spectrum: 2048
>>>>>Begin Processed Spectral Data<<<<<
340.56	-0.0000E00
340.94	-0.0000E00
341.32	-0.0000E00
341.70	-0.0000E00
342.08	-0.0000E00
342.46	-0.0000E00
342.84	-0.0000E00
343.22	-0.0000E00
343.60	-0.0000E00
343.98	-0.0000E00
344.36	-0.0000E00
344.74	-0.0000E00
345.12	-0.0000E00
345.50	-0.0000E00
345.88	-0.0000E00
346.26	-0.0000E00
346.64	-0.0000E00
347.02	-0.0000E00
347.40	-0.0000E00
347.78	-0.0000E00
348.16	-0.0000E00
348.54	-0.0000E00
348.92	-0.0000E00
349.30	-0.0000E00
349.68	-6.2583E-01
350.06	-2.7409E-01
350.43	-2.7704E-01
350.81	-3.0267E-01
351.19	-1.6691E-01
351.57	-1.3160E-01
351.95	-2.0212E-01
352.33	-1.7877E-01
352.71	-1.1781E-01
353.09	-1.5170E-01
353.47	-1.3395E-01
353.84	-1.1581E-01
354.22	-1.4453E-01
354.60	-1.5156E-01
354.98	-1.9855E-01
355.36	-1.8419E-01
355.74	-1.6225E-01
356.12	-1.4960E-01
356.50	-1.4481E-01
356.87	-1.9750E-01
357.25	-1.6202E-01
357.63	-1.6307E-01
358.01	-1.3936E-01
358.39	-1.8343E-01
358.77	-1.6344E-01
359.14	-1.7514E-01
359.52	-2.0786E-01
359.90	-1.4683E-01
360.28	-1.6002E-01
360.66	-1.6799E-01
361.03	-1.5647E-01
361.41	-1.5933E-01
361.79	-1.8500E-01
362.17	-1.7767E-01
362.55	-1.9314E-01
362.92	-1.8625E-01
363.30	-1.6097E-01
363.68	-1.2299E-01
364.06	-1.2759E-01
364.44	-1.4927E-01
364.81	-1.0183E-01
365.19	-1.1388E-01
365.57	-1.1457E-01
365.95	-1.2114E-01
366.32	-1.3398E-01
366.70	-1.4006E-01
367.08	-1.4113E-01
367.46	-1.1691E-01
367.83	-1.3389E-01
368.21	-1.3501E-01
368.59	-8.7886E-02
368.96	-1.0236E-01
369.34	-1.6400E-01
369.72	-1.5163E-01
370.10	-1.7641E-01
370.47	-1.2576E-01
370.85	-1.1923E-01
371.23	-1.2711E-01
371.60	-1.1254E-01
371.98	-1.3965E-01
372.36	-9.5937E-02
372.73	-1.1376E-01
373.11	-1.4720E-01
373.49	-1.3111E-01
373.86	-1.3008E-01
374.24	-1.4490E-01
374.62	-1.0884E-01
374.99	-1.2416E-01
375.37	-9.3919E-02
375.75	-1.1458E-01
376.12	-1.2209E-01
376.50	-7.6410E-02
376.88	-9.0035E-02
377.25	-1.1262E-01
377.63	-1.3144E-01
378.01	-1.1077E-01
378.38	-1.1662E-01
378.76	-1.0553E-01
379.13	-1.2717E-01
379.51	-1.0977E-01
379.89	-9.4196E-02
380.26	-1.0556E-01
380.64	-7.9101E-02
381.01	-1.1690E-01
381.39	-1.2151E-01
381.77	-1.1612E-01
382.14	-1.0747E-01
382.52	-1.0432E-01
382.89	-9.2106E-02
383.27	-1.0018E-01
383.65	-9.8957E-02
384.02	-9.9454E-02
384.40	-8.8610E-02
384.77	-1.1558E-01
385.15	-1.2961E-01
385.52	-1.0681E-01
385.90	-1.0897E-01
386.27	-9.3647E-02
386.65	-7.4549E-02
387.02	-9.2008E-02
387.40	-9.1209E-02
387.78	-9.2713E-02
388.15	-1.1070E-01
388.53	-8.9066E-02
388.90	-1.1525E-01
389.28	-9.6551E-02
389.65	-7.0843E-02
390.03	-1.0080E-01
390.40	-7.8093E-02
390.78	-9.3729E-02
391.15	-1.1925E-01
391.53	-9.0996E-02
391.90	-9.2381E-02
392.28	-8.3241E-02
392.65	-7.9069E-02
393.02	-7.6598E-02
393.40	-9.3217E-02
393.77	-9.1273E-02
394.15	-7.4029E-02
394.52	-7.2793E-02
394.90	-7.1008E-02
395.27	-8.6629E-02
395.65	-8.2620E-02
396.02	-8.7972E-02
396.39	-7.9915E-02
396.77	-8.8255E-02
397.14	-6.4283E-02
397.52	-6.4709E-02
397.89	-8.6456E-02
398.27	-7.8362E-02
398.64	-8.9501E-02
399.01	-8.9874E-02
399.39	-9.0859E-02
399.76	-7.8052E-02
400.14	-6.9360E-02
400.51	-7.5850E-02
400.88	-8.0829E-02
401.26	-6.4952E-02
401.63	-7.4168E-02
402.00	-8.6513E-02
402.38	-8.0367E-02
402.75	-6.8726E-02
403.13	-7.3767E-02
403.50	-6.7544E-02
403.87	-5.2648E-02
404.25	-5.3292E-02
404.62	-6.0616E-02
404.99	-4.1053E-02
405.37	-4.8579E-02
405.74	-4.3755E-02
406.11	-6.5600E-02
406.49	-6.4665E-02
406.86	-7.0445E-02
407.23	-6.0069E-02
407.61	-5.4161E-02
407.98	-6.3166E-02
408.35	-5.9102E-02
408.72	-7.0248E-02
409.10	-7.4726E-02
409.47	-8.1355E-02
409.84	-5.7205E-02
410.22	-5.8827E-02
410.59	-6.0562E-02
410.96	-5.4471E-02
411.33	-4.1050E-02
411.71	-4.4308E-02
412.08	-5.2498E-02
412.45	-6.4136E-02
412.83	-5.0941E-02
413.20	-5.9389E-02
413.57	-5.1277E-02
413.94	-5.2525E-02
414.32	-6.6091E-02
414.69	-7.3518E-02
415.06	-5.6252E-02
415.43	-5.9488E-02
415.80	-6.2446E-02
416.18	-5.9085E-02
416.55	-5.5533E-02
416.92	-5.5146E-02
417.29	-6.4508E-02
417.66	-5.3188E-02
418.04	-4.0715E-02
418.41	-4.6347E-02
418.78	-4.4051E-02
419.15	-4.4680E-02
419.52	-5.8815E-02
419.90	-7.0598E-02
420.27	-4.9911E-02
420.64	-4.2434E-02
421.01	-5.1739E-02
421.38	-5.0815E-02
421.75	-4.8135E-02
422.13	-5.3921E-02
422.50	-4.8822E-02
422.87	-5.1432E-02
423.24	-5.1503E-02
423.61	-4.9542E-02
423.98	-5.2994E-02
424.35	-3.9215E-02
424.73	-4.1984E-02
425.10	-4.3765E-02
425.47	-4.7710E-02
425.84	-5.0794E-02
426.21	-4.9105E-02
426.58	-4.6999E-02
426.95	-4.1486E-02
427.32	-5.7760E-02
427.69	-4.8598E-02
428.06	-4.0350E-02
428.44	-3.0865E-02
428.81	-3.2652E-02
429.18	-3.9469E-02
429.55	-3.1558E-02
429.92	-3.6522E-02
430.29	-4.4465E-02
430.66	-5.3628E-02
431.03	-4.2745E-02
431.40	-4.6107E-02
431.77	-4.2959E-02
432.14	-4.4855E-02
432.51	-5.4033E-02
432.88	-5.0276E-02
433.25	-4.3691E-02
433.62	-4.1584E-02
433.99	-3.8123E-02
434.36	-3.3982E-02
434.73	-4.4502E-02
435.10	-3.9263E-02
435.47	-4.2040E-02
435.84	-3.3780E-02
436.21	-4.0647E-02
436.58	-4.1198E-02
436.95	-4.4767E-02
437.32	-3.7031E-02
437.69	-3.3395E-02
438.06	-4.4237E-02
438.43	-4.1412E-02
438.80	-3.3628E-02
439.17	-4.1652E-02
439.54	-3.8242E-02
439.91	-3.7953E-02
440.28	-3.7795E-02
440.65	-4.2956E-02
441.02	-4.0772E-02
441.39	-4.0815E-02
441.76	-3.1073E-02
442.13	-2.6402E-02
442.50	-3.8536E-02
442.87	-4.1404E-02
443.24	-3.3906E-02
443.61	-3.3027E-02
443.97	-3.6533E-02
444.34	-3.9972E-02
444.71	-3.6964E-02
445.08	-3.1243E-02
445.45	-4.4354E-02
445.82	-3.9088E-02
446.19	-2.8398E-02
446.56	-3.7755E-02
446.93	-3.1267E-02
447.29	-3.2273E-02
447.66	-3.4774E-02
448.03	-2.8822E-02
448.40	-2.8355E-02
448.77	-2.7180E-02
449.14	-3.7347E-02
449.51	-2.9734E-02
449.87	-2.6284E-02
450.24	-3.5286E-02
450.61	-2.1017E-02
450.98	-3.2355E-02
451.35	-3.1760E-02
451.72	-2.7115E-02
452.08	-3.1360E-02
452.45	-3.2588E-02
452.82	-3.6980E-02
453.19	-3.2441E-02
453.56	-3.6343E-02
453.92	-3.8294E-02
454.29	-2.9144E-02
454.66	-3.0325E-02
455.03	-3.3444E-02
455.40	-3.9158E-02
455.76	-3.3952E-02
456.13	-2.9035E-02
456.50	-4.0312E-02
456.87	-3.5619E-02
457.24	-2.3461E-02
457.60	-2.1742E-02
457.97	-3.3101E-02
458.34	-3.2295E-02
458.71	-2.9211E-02
459.07	-4.1840E-02
459.44	-4.2244E-02
459.81	-3.6981E-02
460.17	-3.5767E-02
460.54	-3.4710E-02
460.91	-3.7042E-02
461.28	-3.1658E-02
461.64	-3.1702E-02
462.01	-3.5319E-02
462.38	-2.4776E-02
462.74	-2.4342E-02
463.11	-3.4370E-02
463.48	-3.7525E-02
463.85	-3.5240E-02
464.21	-2.8898E-02
464.58	-2.3798E-02
464.95	-2.5942E-02
465.31	-2.6645E-02
465.68	-2.8768E-02
466.05	-2.6527E-02
466.41	-2.9988E-02
466.78	-2.7271E-02
467.15	-3.2930E-02
467.51	-3.4581E-02
467.88	-2.4303E-02
468.24	-3.1981E-02
468.61	-2.9346E-02
468.98	-2.6056E-02
469.34	-3.0158E-02
469.71	-2.3966E-02
470.08	-2.3410E-02
470.44	-1.8404E-02
470.81	-2.0083E-02
471.17	-2.5570E-02
471.54	-2.6832E-02
471.91	-3.4867E-02
472.27	-2.4871E-02
472.64	-2.1996E-02
473.00	-2.8723E-02
473.37	-3.0095E-02
473.74	-3.0339E-02
474.10	-1.8505E-02
474.47	-2.1560E-02
474.83	-2.4373E-02
475.20	-2.9108E-02
475.56	-2.0938E-02
475.93	-2.2262E-02
476.29	-2.5813E-02
476.66	-3.0932E-02
477.03	-2.8723E-02
477.39	-2.2959E-02
477.76	-2.3563E-02
478.12	-2.8264E-02
478.49	-2.0067E-02
478.85	-2.6725E-02
479.22	-2.6657E-02
479.58	-2.7934E-02
479.95	-2.6656E-02
480.31	-2.3144E-02
480.68	-1.7903E-02
481.04	-2.1428E-02
481.41	-2.1518E-02
481.77	-2.2760E-02
482.14	-2.1701E-02
482.50	-2.0828E-02
482.87	-2.1628E-02
483.23	-1.8836E-02
483.59	-1.8419E-02
483.96	-1.5972E-02
484.32	-1.1666E-02
484.69	-2.1043E-02
485.05	-1.8368E-02
485.42	-2.0439E-02
485.78	-1.7817E-02
486.15	-1.3939E-02
486.51	-2.1402E-02
486.87	-2.1039E-02
487.24	-2.0491E-02
487.60	-1.5011E-02
487.97	-1.7033E-02
488.33	-1.9844E-02
488.70	-1.8710E-02
489.06	-2.3453E-02
489.42	-2.3503E-02
489.79	-2.3344E-02
490.15	-2.1515E-02
490.51	-1.6693E-02
490.88	-1.7482E-02
491.24	-1.7733E-02
491.61	-1.3868E-02
491.97	-2.0278E-02
492.33	-1.5317E-02
492.70	-1.9364E-02
493.06	-2.2026E-02
493.42	-1.9637E-02
493.79	-1.3244E-02
494.15	-1.6482E-02
494.51	-2.0695E-02
494.88	-1.9435E-02
495.24	-2.1916E-02
495.60	-1.7186E-02
495.97	-1.7102E-02
496.33	-1.7072E-02
496.69	-1.8108E-02
497.06	-2.3558E-02
497.42	-2.4898E-02
497.78	-2.2917E-02
498.14	-1.8941E-02
498.51	-2.2577E-02
498.87	-2.2339E-02
499.23	-1.9754E-02
499.60	-2.3266E-02
499.96	-1.8930E-02
500.32	-1.3831E-02
500.68	-1.9006E-02
501.05	-1.6380E-02
501.41	-1.9925E-02
501.77	-2.1932E-02
502.13	-2.2561E-02
502.50	-2.1490E-02
502.86	-2.0350E-02
503.22	-2.1105E-02
503.58	-1.6610E-02
503.95	-1.6503E-02
504.31	-1.4976E-02
504.67	-2.4597E-02
505.03	-2.4785E-02
505.39	-2.2005E-02
505.76	-1.9549E-02
506.12	-1.5983E-02
506.48	-1.5997E-02
506.84	-1.9255E-02
507.20	-1.5453E-02
507.57	-1.4352E-02
507.93	-1.1330E-02
508.29	-2.1373E-02
508.65	-2.3305E-02
509.01	-2.0493E-02
509.37	-1.7374E-02
509.74	-1.6372E-02
510.10	-2.5390E-02
510.46	-2.4286E-02
510.82	-2.1004E-02
511.18	-2.3861E-02
511.54	-2.6546E-02
511.90	-2.1999E-02
512.27	-1.9900E-02
512.63	-1.8282E-02
512.99	-2.0104E-02
513.35	-2.1385E-02
513.71	-1.7306E-02
514.07	-1.9688E-02
514.43	-2.4116E-02
514.79	-1.9669E-02
515.15	-1.8773E-02
515.52	-2.1611E-02
515.88	-1.9500E-02
516.24	-2.1014E-02
516.60	-2.7379E-02
516.96	-2.8510E-02
517.32	-1.9180E-02
517.68	-2.0521E-02
518.04	-1.8904E-02
518.40	-1.9231E-02
518.76	-2.3576E-02
519.12	-2.4679E-02
519.48	-1.9783E-02
519.84	-2.2049E-02
520.20	-2.2870E-02
520.56	-2.4617E-02
520.92	-2.4289E-02
521.28	-2.0933E-02
521.64	-2.2045E-02
522.00	-1.7470E-02
522.36	-2.6724E-02
522.72	-1.7184E-02
523.08	-2.0555E-02
523.44	-2.1075E-02
523.80	-2.1419E-02
524.16	-2.4205E-02
524.52	-2.0960E-02
524.88	-2.2419E-02
525.24	-2.3866E-02
525.60	-2.3492E-02
525.96	-2.3189E-02
526.32	-2.2338E-02
526.68	-2.1180E-02
527.04	-2.4918E-02
527.40	-2.3496E-02
527.76	-2.7566E-02
528.12	-3.0902E-02
528.48	-2.6887E-02
528.84	-2.0903E-02
529.20	-1.8305E-02
529.56	-2.1040E-02
529.91	-2.8826E-02
530.27	-2.4405E-02
530.63	-2.7164E-02
530.99	-2.8195E-02
531.35	-2.8091E-02
531.71	-2.6823E-02
532.07	-2.0134E-02
532.43	-2.7196E-02
532.79	-2.8636E-02
533.15	-2.3734E-02
533.50	-2.2643E-02
533.86	-2.3675E-02
534.22	-1.7998E-02
534.58	-2.3745E-02
534.94	-2.1714E-02
535.30	-2.2957E-02
535.66	-2.2930E-02
536.01	-2.2140E-02
536.37	-2.3942E-02
536.73	-2.4258E-02
537.09	-2.3986E-02
537.45	-2.3755E-02
537.81	-2.4790E-02
538.16	-1.9181E-02
538.52	-1.2052E-02
538.88	-1.2019E-02
539.24	-2.1854E-02
539.60	-2.0659E-02
539.95	-1.4996E-02
540.31	-1.8029E-02
540.67	-1.8000E-02
541.03	-1.5112E-02
541.38	-1.3863E-02
541.74	-1.9737E-02
542.10	-1.4182E-02
542.46	-1.6988E-02
542.82	-1.9076E-02
543.17	-1.1245E-02
543.53	-1.8808E-02
543.89	-2.0885E-02
544.25	-1.1732E-02
544.60	-1.1733E-02
544.96	-1.7940E-02
545.32	-2.0668E-02
545.67	-2.3507E-02
546.03	-1.1767E-02
546.39	-1.3728E-02
546.75	-1.0081E-02
547.10	-1.5658E-02
547.46	-9.6016E-03
547.82	-1.2723E-02
548.17	-1.3678E-02
548.53	-1.8227E-02
548.89	-2.1700E-02
549.24	-1.6614E-02
549.60	-1.4736E-02
549.96	-2.0856E-02
550.31	-2.7451E-02
550.67	-2.2531E-02
551.03	-2.0260E-02
551.38	-1.4168E-02
551.74	-1.7271E-02
552.10	-1.9326E-02
552.45	-2.5554E-02
552.81	-2.3703E-02
553.17	-1.8058E-02
553.52	-2.1442E-02
553.88	-2.3417E-02
554.23	-2.4374E-02
554.59	-1.7519E-02
554.95	-1.9628E-02
555.30	-1.7654E-02
555.66	-2.3178E-02
556.02	-2.0389E-02
556.37	-2.2627E-02
556.73	-2.4877E-02
557.08	-2.6352E-02
557.44	-2.2558E-02
557.79	-2.6941E-02
558.15	-2.7421E-02
558.51	-2.0827E-02
558.86	-1.8935E-02
559.22	-2.2370E-02
559.57	-1.9260E-02
559.93	-2.1839E-02
560.28	-2.2255E-02
560.64	-1.8438E-02
560.99	-1.7880E-02
561.35	-2.2796E-02
561.70	-1.7729E-02
562.06	-2.5987E-02
562.41	-2.5660E-02
562.77	-2.3926E-02
563.13	-2.4018E-02
563.48	-2.4877E-02
563.84	-1.8497E-02
564.19	-1.8294E-02
564.54	-2.0656E-02
564.90	-2.0312E-02
565.25	-2.3924E-02
565.61	-2.3870E-02
565.96	-1.8716E-02
566.32	-2.0857E-02
566.67	-2.2416E-02
567.03	-1.9428E-02
567.38	-2.3256E-02
567.74	-2.4421E-02
568.09	-2.1400E-02
568.45	-2.2315E-02
568.80	-2.5239E-02
569.15	-2.4175E-02
569.51	-1.5834E-02
569.86	-1.8891E-02
570.22	-1.5789E-02
570.57	-1.4194E-02
570.93	-1.3971E-02
571.28	-9.9128E-03
571.63	-1.0021E-02
571.99	-2.4400E-02
572.34	-3.2329E-02
572.70	-1.9732E-02
573.05	-1.4226E-02
573.40	-2.2575E-02
573.76	-1.4615E-02
574.11	-1.5647E-02
574.46	-1.8806E-02
574.82	-1.9819E-02
575.17	-9.2641E-03
575.53	-1.5169E-02
575.88	-1.2776E-02
576.23	-1.2586E-02
576.59	-1.9447E-02
576.94	-7.8654E-03
577.29	-5.6506E-03
577.65	-4.8877E-03
578.00	-4.0182E-03
578.35	-5.7237E-03
578.70	-6.0636E-03
579.06	-2.3016E-03
579.41	-4.3451E-03
579.76	-8.1541E-03
580.12	-6.6924E-03
580.47	-7.0179E-03
580.82	1.7612E-03
581.18	-9.0677E-03
581.53	-7.9997E-03
581.88	5.3295E-03
582.23	1.2082E-02
582.59	3.8554E-03
582.94	1.1845E-03
583.29	5.3949E-03
583.64	2.9873E-03
584.00	6.0009E-03
584.35	1.0120E-02
584.70	4.8237E-03
585.05	1.3254E-02
585.41	9.6495E-03
585.76	1.0961E-02
586.11	1.9141E-02
586.46	1.8479E-02
586.81	1.3975E-02
587.17	1.4268E-02
587.52	1.5035E-02
587.87	1.6053E-02
588.22	2.7785E-02
588.57	3.0956E-02
588.93	3.0024E-02
589.28	2.4401E-02
589.63	3.2372E-02
589.98	3.4388E-02
590.33	3.8911E-02
590.68	3.8521E-02
591.04	3.6360E-02
591.39	4.4886E-02
591.74	4.2076E-02
592.09	4.7983E-02
592.44	4.8524E-02
592.79	5.8966E-02
593.14	5.4188E-02
593.50	5.2078E-02
593.85	6.1869E-02
594.20	6.5912E-02
594.55	7.5404E-02
594.90	7.4360E-02
595.25	7.3414E-02
595.60	8.1771E-02
595.95	8.5548E-02
596.30	8.5580E-02
596.66	9.5625E-02
597.01	8.8049E-02
597.36	1.0622E-01
597.71	1.1264E-01
598.06	1.1051E-01
598.41	1.1241E-01
598.76	1.1476E-01
599.11	1.2583E-01
599.46	1.3626E-01
599.81	1.4589E-01
600.16	1.4712E-01
600.51	1.4575E-01
600.86	1.6418E-01
601.21	1.6638E-01
601.56	1.7459E-01
601.91	1.9789E-01
602.26	2.0183E-01
602.61	1.9660E-01
602.96	2.1056E-01
603.31	2.2074E-01
603.66	2.3039E-01
604.01	2.3813E-01
604.36	2.5449E-01
604.71	2.4786E-01
605.06	2.6450E-01
605.41	2.6579E-01
605.76	2.7812E-01
606.11	2.8951E-01
606.46	2.9099E-01
606.81	2.9716E-01
607.16	3.1359E-01
607.51	3.1944E-01
607.86	3.2908E-01
608.21	3.3927E-01
608.56	3.4003E-01
608.91	3.4247E-01
609.26	3.6832E-01
609.61	3.8325E-01
609.95	3.7278E-01
610.30	3.7459E-01
610.65	3.5339E-01
611.00	3.2405E-01
611.35	2.8384E-01
611.70	2.8067E-01
612.05	2.9963E-01
612.40	3.1920E-01
612.75	3.4891E-01
613.09	3.7121E-01
613.44	3.9037E-01
613.79	4.1758E-01
614.14	4.2237E-01
614.49	4.4061E-01
614.84	4.3683E-01
615.19	4.4248E-01
615.53	4.5416E-01
615.88	4.5799E-01
616.23	4.7419E-01
616.58	4.7984E-01
616.93	4.8659E-01
617.28	5.0877E-01
617.62	5.1918E-01
617.97	5.3645E-01
618.32	5.5022E-01
618.67	5.6414E-01
619.02	5.7407E-01
619.36	6.0077E-01
619.71	6.2074E-01
620.06	6.3544E-01
620.41	6.6389E-01
620.76	6.8580E-01
621.10	6.9998E-01
621.45	7.2359E-01
621.80	7.4504E-01
622.15	7.8371E-01
622.49	8.0235E-01
622.84	8.2077E-01
623.19	8.7950E-01
623.54	9.3311E-01
623.88	9.3987E-01
624.23	9.8425E-01
624.58	1.0185E00
624.92	1.0746E00
625.27	1.1164E00
625.62	1.1652E00
625.97	1.2334E00
626.31	1.2965E00
626.66	1.3515E00
627.01	1.4202E00
627.35	1.5226E00
627.70	1.6119E00
628.05	1.6866E00
628.39	1.7990E00
628.74	1.8896E00
629.09	1.9974E00
629.43	2.1157E00
629.78	2.2221E00
630.13	2.3490E00
630.47	2.4607E00
630.82	2.6080E00
631.17	2.7208E00
631.51	2.8686E00
631.86	2.9778E00
632.20	3.1551E00
632.55	3.2595E00
632.90	3.4134E00
633.24	3.5413E00
633.59	3.6579E00
633.94	3.7862E00
634.28	3.8635E00
634.63	3.9829E00
634.97	4.0327E00
635.32	4.0915E00
635.66	4.1261E00
636.01	4.2000E00
636.36	4.1671E00
636.70	4.2023E00
637.05	4.1747E00
637.39	4.1324E00
637.74	4.0773E00
638.08	4.0173E00
638.43	3.9257E00
638.77	3.8669E00
639.12	3.7389E00
639.46	3.6262E00
639.81	3.4568E00
640.15	3.3244E00
640.50	3.1972E00
640.85	3.0165E00
641.19	2.8853E00
641.54	2.7367E00
641.88	2.6086E00
642.22	2.4683E00
642.57	2.3260E00
642.91	2.1910E00
643.26	2.0600E00
643.60	1.9519E00
643.95	1.8477E00
644.29	1.7384E00
644.64	1.6620E00
644.98	1.5419E00
645.33	1.4683E00
645.67	1.3594E00
646.02	1.2909E00
646.36	1.2311E00
646.70	1.1443E00
647.05	1.0808E00
647.39	9.9702E-01
647.74	9.5558E-01
648.08	8.8624E-01
648.42	8.0773E-01
648.77	7.7553E-01
649.11	7.1986E-01
649.46	6.7186E-01
649.80	6.2387E-01
650.14	5.8245E-01
650.49	5.3280E-01
650.83	4.9011E-01
651.18	4.5916E-01
651.52	4.3246E-01
651.86	4.0093E-01
652.21	3.5760E-01
652.55	3.4273E-01
652.89	3.2146E-01
653.24	2.9908E-01
653.58	2.5893E-01
653.92	2.4929E-01
654.27	2.1573E-01
654.61	1.9239E-01
654.95	1.7177E-01
655.30	1.6473E-01
655.64	1.4823E-01
655.98	1.3711E-01
656.33	1.2179E-01
656.67	1.2706E-01
657.01	1.1764E-01
657.35	9.0634E-02
657.70	9.0353E-02
658.04	6.6754E-02
658.38	6.1957E-02
658.73	6.1090E-02
659.07	3.5229E-02
659.41	2.6465E-02
659.75	2.8732E-02
660.10	2.9915E-02
660.44	2.6639E-02
660.78	2.5945E-03
661.12	8.6487E-04
661.46	-6.9228E-03
661.81	-5.6251E-03
662.15	-1.6944E-02
662.49	-1.9840E-02
662.83	-4.1840E-02
663.18	-4.2002E-02
663.52	-4.2993E-02
663.86	-4.5410E-02
664.20	-5.3385E-02
664.54	-5.1699E-02
664.88	-4.5381E-02
665.23	-3.7689E-02
665.57	-3.5793E-02
665.91	-4.3013E-02
666.25	-5.3294E-02
666.59	-7.2515E-02
666.93	-6.9133E-02
667.28	-6.6233E-02
667.62	-6.6805E-02
667.96	-7.5295E-02
668.30	-6.0571E-02
668.64	-5.8223E-02
668.98	-7.5577E-02
669.32	-7.7106E-02
669.67	-7.5377E-02
670.01	-8.8479E-02
670.35	-9.2890E-02
670.69	-8.7924E-02
671.03	-8.7956E-02
671.37	-9.4969E-02
671.71	-7.9486E-02
672.05	-8.2569E-02
672.39	-9.1530E-02
672.73	-9.3892E-02
673.07	-8.4489E-02
673.42	-8.9203E-02
673.76	-8.9060E-02
674.10	-1.0269E-01
674.44	-9.0870E-02
674.78	-9.6548E-02
675.12	-9.7081E-02
675.46	-9.6076E-02
675.80	-9.9436E-02
676.14	-9.7071E-02
676.48	-1.0397E-01
676.82	-1.0273E-01
677.16	-8.7654E-02
677.50	-9.3260E-02
677.84	-8.3537E-02
678.18	-7.8027E-02
678.52	-8.9378E-02
678.86	-9.0134E-02
679.20	-8.5533E-02
679.54	-9.9922E-02
679.88	-1.0087E-01
680.22	-9.7087E-02
680.56	-8.6034E-02
680.90	-9.2657E-02
681.24	-9.4841E-02
681.58	-9.7241E-02
681.92	-8.8329E-02
682.26	-8.7065E-02
682.60	-9.0007E-02
682.93	-9.5261E-02
683.27	-9.7724E-02
683.61	-9.7093E-02
683.95	-1.0513E-01
684.29	-1.0877E-01
684.63	-1.0520E-01
684.97	-8.6219E-02
685.31	-9.3028E-02
685.65	-8.9305E-02
685.99	-9.3295E-02
686.33	-1.0580E-01
686.66	-9.7184E-02
687.00	-1.0052E-01
687.34	-1.0561E-01
687.68	-1.0163E-01
688.02	-8.9238E-02
688.36	-9.6432E-02
688.70	-1.1225E-01
689.03	-1.1820E-01
689.37	-1.0300E-01
689.71	-1.0882E-01
690.05	-1.1164E-01
690.39	-9.2482E-02
690.73	-9.0599E-02
691.06	-1.0908E-01
691.40	-9.9500E-02
691.74	-1.0029E-01
692.08	-1.0563E-01
692.42	-1.0346E-01
692.75	-9.5787E-02
693.09	-1.0182E-01
693.43	-1.2140E-01
693.77	-1.0035E-01
694.11	-1.0495E-01
694.44	-9.2125E-02
694.78	-1.0664E-01
695.12	-1.1433E-01
695.46	-1.1774E-01
695.79	-1.0998E-01
696.13	-1.1250E-01
696.47	-9.8307E-02
696.81	-1.0639E-01
697.14	-9.8239E-02
697.48	-9.3602E-02
697.82	-1.0531E-01
698.16	-1.1376E-01
698.49	-1.1163E-01
698.83	-1.1575E-01
699.17	-1.0823E-01
699.50	-1.0259E-01
699.84	-9.9945E-02
700.18	-9.7963E-02
700.51	-1.1408E-01
700.85	-1.1075E-01
701.19	-1.1542E-01
701.52	-1.1812E-01
701.86	-1.0846E-01
702.20	-1.0883E-01
702.53	-1.1908E-01
702.87	-1.3323E-01
703.21	-1.2872E-01
703.54	-1.2578E-01
703.88	-1.1516E-01
704.22	-1.1848E-01
704.55	-1.1565E-01
704.89	-1.2602E-01
705.23	-1.2500E-01
705.56	-1.2326E-01
705.90	-1.3118E-01
706.23	-1.4598E-01
706.57	-1.4220E-01
706.91	-1.4930E-01
707.24	-1.5356E-01
707.58	-1.4777E-01
707.91	-1.3671E-01
708.25	-1.6639E-01
708.58	-1.6230E-01
708.92	-1.7219E-01
709.26	-1.7289E-01
709.59	-1.6455E-01
709.93	-1.5592E-01
710.26	-1.4724E-01
710.60	-1.3947E-01
710.93	-1.3034E-01
711.27	-1.5520E-01
711.60	-1.6240E-01
711.94	-1.5541E-01
712.27	-1.6613E-01
712.61	-1.7411E-01
712.95	-1.7062E-01
713.28	-1.6052E-01
713.62	-1.6192E-01
713.95	-1.4915E-01
714.28	-1.6023E-01
714.62	-1.5700E-01
714.95	-1.3736E-01
715.29	-1.2949E-01
715.62	-1.2625E-01
715.96	-1.1763E-01
716.29	-1.2300E-01
716.63	-1.3451E-01
716.96	-1.2162E-01
717.30	-1.1832E-01
717.63	-1.2402E-01
717.97	-1.0210E-01
718.30	-1.0542E-01
718.63	-1.1297E-01
718.97	-1.0227E-01
719.30	-1.0377E-01
719.64	-1.1356E-01
719.97	-1.0251E-01
720.31	-1.0429E-01
720.64	-1.2121E-01
720.97	-1.2210E-01
721.31	-1.1680E-01
721.64	-1.2156E-01
721.97	-9.3172E-02
722.31	-1.2301E-01
722.64	-1.2786E-01
722.98	-1.1444E-01
723.31	-1.1373E-01
723.64	-1.3664E-01
723.98	-1.3240E-01
724.31	-1.2970E-01
724.64	-1.3061E-01
724.98	-1.2461E-01
725.31	-1.2913E-01
725.64	-1.2670E-01
725.98	-1.2437E-01
726.31	-1.2130E-01
726.64	-1.2567E-01
726.98	-1.4234E-01
727.31	-1.1189E-01
727.64	-1.2377E-01
727.97	-1.2361E-01
728.31	-1.3579E-01
728.64	-1.1546E-01
728.97	-1.2505E-01
729.31	-1.2046E-01
729.64	-1.1787E-01
729.97	-1.2688E-01
730.30	-1.2512E-01
730.64	-1.3662E-01
730.97	-1.2422E-01
731.30	-1.5284E-01
731.63	-1.3700E-01
731.97	-1.2350E-01
732.30	-1.3761E-01
732.63	-1.4398E-01
732.96	-1.6061E-01
733.29	-1.5036E-01
733.63	-1.2772E-01
733.96	-1.4331E-01
734.29	-1.4415E-01
734.62	-1.4912E-01
734.96	-1.4847E-01
735.29	-1.3466E-01
735.62	-1.3967E-01
735.95	-1.4118E-01
736.28	-1.4653E-01
736.61	-1.4633E-01
736.95	-1.4749E-01
737.28	-1.4814E-01
737.61	-1.6259E-01
737.94	-1.6656E-01
738.27	-1.4632E-01
738.60	-1.2851E-01
738.93	-1.5286E-01
739.27	-1.4425E-01
739.60	-1.4773E-01
739.93	-1.3942E-01
740.26	-1.4864E-01
740.59	-1.5530E-01
740.92	-1.5376E-01
741.25	-1.4003E-01
741.58	-1.4732E-01
741.91	-1.6129E-01
742.24	-1.7188E-01
742.58	-1.6276E-01
742.91	-1.4436E-01
743.24	-1.5809E-01
743.57	-1.7129E-01
743.90	-1.5797E-01
744.23	-1.5673E-01
744.56	-1.6400E-01
744.89	-1.6577E-01
745.22	-1.4568E-01
745.55	-1.3727E-01
745.88	-1.7939E-01
746.21	-1.5890E-01
746.54	-1.3876E-01
746.87	-1.5675E-01
747.20	-1.6237E-01
747.53	-1.5090E-01
747.86	-1.5134E-01
748.19	-1.5821E-01
748.52	-1.6314E-01
748.85	-1.7804E-01
749.18	-1.6669E-01
749.51	-1.6668E-01
749.84	-1.6395E-01
750.17	-1.5576E-01
750.50	-1.7238E-01
750.83	-1.6564E-01
751.16	-1.7431E-01
751.49	-1.5824E-01
751.82	-1.6119E-01
752.15	-1.8054E-01
752.48	-1.6843E-01
752.81	-1.5300E-01
753.14	-1.7121E-01
753.46	-1.6872E-01
753.79	-1.8978E-01
754.12	-1.4937E-01
754.45	-1.5553E-01
754.78	-1.5623E-01
755.11	-1.5247E-01
755.44	-1.5951E-01
755.77	-1.4291E-01
756.10	-1.7824E-01
756.42	-2.0128E-01
756.75	-2.0239E-01
757.08	-1.5851E-01
757.41	-1.5340E-01
757.74	-1.6684E-01
758.07	-1.6051E-01
758.40	-1.6522E-01
758.72	-1.6485E-01
759.05	-1.6639E-01
759.38	-1.6070E-01
759.71	-1.5157E-01
760.04	-1.3654E-01
760.37	-1.1871E-01
760.69	-1.2566E-01
761.02	-1.1685E-01
761.35	-1.3812E-01
761.68	-1.4674E-01
762.01	-1.3355E-01
762.33	-1.2994E-01
762.66	-1.3563E-01
762.99	-1.4854E-01
763.32	-1.4209E-01
763.64	-1.5579E-01
763.97	-1.4415E-01
764.30	-1.2077E-01
764.63	-1.2550E-01
764.95	-1.4868E-01
765.28	-1.6380E-01
765.61	-1.3516E-01
765.94	-1.5490E-01
766.26	-1.6292E-01
766.59	-1.5953E-01
766.92	-1.7605E-01
767.25	-1.8866E-01
767.57	-1.8461E-01
767.90	-1.9470E-01
768.23	-1.8591E-01
768.55	-1.5863E-01
768.88	-1.6300E-01
769.21	-1.8295E-01
769.53	-1.9280E-01
769.86	-2.1549E-01
770.19	-1.8232E-01
770.51	-1.8122E-01
770.84	-1.8331E-01
771.17	-2.0975E-01
771.49	-1.9826E-01
771.82	-1.9171E-01
772.15	-2.1971E-01
772.47	-2.2390E-01
772.80	-2.3240E-01
773.13	-2.0176E-01
773.45	-2.3651E-01
773.78	-2.1322E-01
774.10	-2.0982E-01
774.43	-2.0977E-01
774.76	-1.9769E-01
775.08	-2.0171E-01
775.41	-1.9511E-01
775.73	-1.9434E-01
776.06	-2.3302E-01
776.38	-2.1815E-01
776.71	-2.1747E-01
777.04	-2.2833E-01
777.36	-2.4791E-01
777.69	-2.3642E-01
778.01	-2.1903E-01
778.34	-1.9596E-01
778.66	-1.8587E-01
778.99	-1.9491E-01
779.31	-2.1476E-01
779.64	-2.3790E-01
779.96	-2.0590E-01
780.29	-2.1922E-01
780.61	-2.1058E-01
780.94	-1.9827E-01
781.26	-1.8994E-01
781.59	-2.1258E-01
781.91	-2.2679E-01
782.24	-2.3226E-01
782.56	-2.1356E-01
782.89	-2.3222E-01
783.21	-2.4431E-01
783.54	-2.3195E-01
783.86	-2.2677E-01
784.19	-2.4121E-01
784.51	-2.0794E-01
784.84	-1.9951E-01
785.16	-2.1233E-01
785.48	-1.9959E-01
785.81	-1.7933E-01
786.13	-2.2176E-01
786.46	-2.6064E-01
786.78	-2.2480E-01
787.11	-2.2401E-01
787.43	-2.1223E-01
787.75	-2.2703E-01
788.08	-2.4419E-01
788.40	-2.4411E-01
788.73	-2.3325E-01
789.05	-2.3222E-01
789.37	-2.5695E-01
789.70	-2.4911E-01
790.02	-2.2910E-01
790.34	-2.3865E-01
790.67	-2.0060E-01
790.99	-2.0885E-01
791.31	-1.8497E-01
791.64	-2.1601E-01
791.96	-1.9919E-01
792.28	-2.1152E-01
792.61	-2.0774E-01
792.93	-2.1515E-01
793.25	-2.2024E-01
793.58	-1.9030E-01
793.90	-1.8752E-01
794.22	-1.8938E-01
794.55	-2.2340E-01
794.87	-2.2565E-01
795.19	-2.2517E-01
795.51	-2.1104E-01
795.84	-2.0938E-01
796.16	-1.9768E-01
796.48	-2.1680E-01
796.80	-1.9449E-01
797.13	-2.0632E-01
797.45	-2.1938E-01
797.77	-2.2311E-01
798.09	-1.6745E-01
798.42	-1.8453E-01
798.74	-2.2580E-01
799.06	-2.0499E-01
799.38	-1.9513E-01
799.71	-1.9576E-01
800.03	-2.3535E-01
800.35	-2.3892E-01
800.67	-2.1332E-01
800.99	-2.3048E-01
801.32	-2.0073E-01
801.64	-2.1124E-01
801.96	-2.2784E-01
802.28	-2.2245E-01
802.60	-2.6507E-01
802.92	-2.4941E-01
803.25	-2.3953E-01
803.57	-2.1783E-01
803.89	-2.0906E-01
804.21	-2.2248E-01
804.53	-2.0181E-01
804.85	-2.0810E-01
805.17	-2.4485E-01
805.50	-2.3603E-01
805.82	-2.4073E-01
806.14	-2.2799E-01
806.46	-2.2897E-01
806.78	-2.3019E-01
807.10	-2.1998E-01
807.42	-2.5344E-01
807.74	-2.4380E-01
808.06	-2.3696E-01
808.38	-2.8930E-01
808.70	-2.7621E-01
809.03	-2.1676E-01
809.35	-2.1955E-01
809.67	-2.1039E-01
809.99	-2.2003E-01
810.31	-2.5728E-01
810.63	-2.5170E-01
810.95	-2.2980E-01
811.27	-1.9735E-01
811.59	-2.1597E-01
811.91	-2.3239E-01
812.23	-2.5897E-01
812.55	-2.6411E-01
812.87	-2.4921E-01
813.19	-2.5718E-01
813.51	-2.4978E-01
813.83	-1.9958E-01
814.15	-2.2689E-01
814.47	-2.4404E-01
814.79	-2.3117E-01
815.11	-2.0442E-01
815.43	-2.2945E-01
815.75	-2.2618E-01
816.07	-2.2138E-01
816.39	-2.5693E-01
816.71	-2.1962E-01
817.03	-2.7646E-01
817.34	-2.6095E-01
817.66	-2.3095E-01
817.98	-2.4545E-01
818.30	-2.6225E-01
818.62	-2.8150E-01
818.94	-2.6837E-01
819.26	-2.0347E-01
819.58	-1.9946E-01
819.90	-2.0995E-01
820.22	-2.6737E-01
820.54	-2.7148E-01
820.85	-2.2578E-01
821.17	-2.5431E-01
821.49	-2.1945E-01
821.81	-2.3259E-01
822.13	-2.6569E-01
822.45	-2.5649E-01
822.77	-2.6620E-01
823.08	-2.0972E-01
823.40	-2.7824E-01
823.72	-2.4506E-01
824.04	-2.2592E-01
824.36	-2.4572E-01
824.68	-2.2946E-01
824.99	-2.7218E-01
825.31	-2.4030E-01
825.63	-2.3636E-01
825.95	-2.8326E-01
826.27	-2.6700E-01
826.58	-2.6240E-01
826.90	-3.3139E-01
827.22	-3.3235E-01
827.54	-2.4069E-01
827.85	-2.0708E-01
828.17	-2.6337E-01
828.49	-2.9766E-01
828.81	-2.4704E-01
829.12	-2.4211E-01
829.44	-2.9579E-01
829.76	-2.6629E-01
830.08	-2.1238E-01
830.39	-2.8237E-01
830.71	-2.6719E-01
831.03	-2.7116E-01
831.35	-2.5541E-01
831.66	-2.5412E-01
831.98	-2.4762E-01
832.30	-2.8432E-01
832.61	-2.7792E-01
832.93	-2.7260E-01
833.25	-2.9104E-01
833.56	-3.5383E-01
833.88	-3.1847E-01
834.20	-3.0152E-01
834.51	-2.6710E-01
834.83	-2.8631E-01
835.15	-2.7813E-01
835.46	-2.6231E-01
835.78	-2.9466E-01
836.10	-2.5337E-01
836.41	-2.6764E-01
836.73	-2.9871E-01
837.04	-3.0552E-01
837.36	-2.4133E-01
837.68	-2.7176E-01
837.99	-2.4664E-01
838.31	-2.6564E-01
838.62	-2.7486E-01
838.94	-2.7671E-01
839.26	-2.5689E-01
839.57	-2.5842E-01
839.89	-2.8634E-01
840.20	-3.4194E-01
840.52	-3.1077E-01
840.83	-2.9662E-01
841.15	-3.1032E-01
841.47	-2.7435E-01
841.78	-2.9354E-01
842.10	-2.9878E-01
842.41	-3.0787E-01
842.73	-2.7541E-01
843.04	-3.0336E-01
843.36	-3.3746E-01
843.67	-3.0201E-01
843.99	-2.8263E-01
844.30	-3.0573E-01
844.62	-3.2628E-01
844.93	-2.7692E-01
845.25	-2.7398E-01
845.56	-2.8317E-01
845.88	-2.7336E-01
846.19	-2.7163E-01
846.51	-2.6429E-01
846.82	-2.8504E-01
847.14	-3.2774E-01
847.45	-3.0061E-01
847.76	-2.8345E-01
848.08	-2.7930E-01
848.39	-3.4174E-01
848.71	-3.3659E-01
849.02	-3.5051E-01
849.34	-3.8246E-01
849.65	-3.2074E-01
849.96	-3.0707E-01
850.28	-2.9887E-01
850.59	-3.3292E-01
850.91	-3.9525E-01
851.22	-3.3609E-01
851.53	-2.7459E-01
851.85	-2.9655E-01
852.16	-2.4733E-01
852.47	-3.1719E-01
852.79	-3.0527E-01
853.10	-3.2581E-01
853.41	-3.3728E-01
853.73	-3.2149E-01
854.04	-2.7724E-01
854.36	-2.6982E-01
854.67	-2.9579E-01
854.98	-3.4759E-01
855.29	-3.6634E-01
855.61	-3.1146E-01
855.92	-2.9132E-01
856.23	-3.3074E-01
856.55	-3.2026E-01
856.86	-3.1652E-01
857.17	-3.0024E-01
857.49	-2.8381E-01
857.80	-3.6834E-01
858.11	-3.7006E-01
858.42	-3.3125E-01
858.74	-2.7670E-01
859.05	-3.9323E-01
859.36	-4.6202E-01
859.67	-3.7615E-01
859.99	-3.0848E-01
860.30	-2.7656E-01
860.61	-3.1079E-01
860.92	-3.5032E-01
861.24	-3.5055E-01
861.55	-3.4963E-01
861.86	-4.2795E-01
862.17	-4.3353E-01
862.48	-3.7907E-01
862.80	-3.6828E-01
863.11	-4.2055E-01
863.42	-3.0759E-01
863.73	-3.0227E-01
864.04	-3.7102E-01
864.35	-3.3890E-01
864.67	-3.5907E-01
864.98	-3.6701E-01
865.29	-3.3415E-01
865.60	-3.2785E-01
865.91	-3.5658E-01
866.22	-3.5625E-01
866.53	-3.8650E-01
866.85	-3.9804E-01
867.16	-3.9179E-01
867.47	-4.4299E-01
867.78	-4.0954E-01
868.09	-3.6723E-01
868.40	-4.1865E-01
868.71	-4.2126E-01
869.02	-3.9368E-01
869.33	-4.4301E-01
869.65	-4.5424E-01
869.96	-4.8505E-01
870.27	-4.5370E-01
870.58	-3.5309E-01
870.89	-4.2654E-01
871.20	-3.8093E-01
871.51	-3.4266E-01
871.82	-3.4864E-01
872.13	-4.8883E-01
872.44	-4.4707E-01
872.75	-4.2270E-01
873.06	-4.4753E-01
873.37	-4.4823E-01
873.68	-4.4239E-01
873.99	-4.2358E-01
874.30	-4.4233E-01
874.61	-3.5740E-01
874.92	-3.4881E-01
875.23	-3.6197E-01
875.54	-4.7968E-01
875.85	-3.8153E-01
876.16	-4.4139E-01
876.47	-3.9550E-01
876.78	-3.7053E-01
877.09	-4.3405E-01
877.40	-4.0007E-01
877.71	-5.2443E-01
878.02	-5.2844E-01
878.33	-5.5519E-01
878.64	-5.3024E-01
878.94	-5.2989E-01
879.25	-4.4032E-01
879.56	-5.1300E-01
879.87	-5.7454E-01
880.18	-4.9010E-01
880.49	-4.2045E-01
880.80	-3.5416E-01
881.11	-3.6609E-01
881.42	-4.7587E-01
881.72	-4.7431E-01
882.03	-4.4678E-01
882.34	-5.4096E-01
882.65	-5.4944E-01
882.96	-4.8973E-01
883.27	-5.4895E-01
883.58	-5.3778E-01
883.88	-3.2817E-01
884.19	-4.8670E-01
884.50	-4.1273E-01
884.81	-4.2477E-01
885.12	-5.4896E-01
885.43	-5.0293E-01
885.73	-4.2315E-01
886.04	-5.0852E-01
886.35	-5.8157E-01
886.66	-5.4072E-01
886.97	-5.8988E-01
887.27	-5.3548E-01
887.58	-5.3814E-01
887.89	-4.8140E-01
888.20	-4.7967E-01
888.50	-4.5298E-01
888.81	-5.0349E-01
889.12	-5.0972E-01
889.43	-4.4388E-01
889.73	-4.5585E-01
890.04	-6.0417E-01
890.35	-6.2119E-01
890.66	-5.2828E-01
890.96	-6.5793E-01
891.27	-5.5961E-01
891.58	-5.0295E-01
891.88	-5.4699E-01
892.19	-5.6936E-01
892.50	-4.6129E-01
892.80	-5.8274E-01
893.11	-4.7494E-01
893.42	-4.9908E-01
893.72	-5.3893E-01
894.03	-5.7574E-01
894.34	-5.3503E-01
894.64	-5.6582E-01
894.95	-5.3767E-01
895.26	-5.8573E-01
895.56	-5.0768E-01
895.87	-3.8936E-01
896.18	-4.7512E-01
896.48	-4.7415E-01
896.79	-3.9780E-01
897.09	-4.2947E-01
897.40	-4.4202E-01
897.71	-4.4522E-01
898.01	-4.4930E-01
898.32	-4.5373E-01
898.62	-4.5869E-01
898.93	-4.5038E-01
899.24	-4.6776E-01
899.54	-5.2515E-01
899.85	-4.4274E-01
900.15	-3.7227E-01
900.46	-4.1205E-01
900.76	-4.5580E-01
901.07	-5.0154E-01
901.37	-5.4436E-01
901.68	-6.1982E-01
901.99	-7.0783E-01
902.29	-6.0891E-01
902.60	-5.8487E-01
902.90	-4.7608E-01
903.21	-3.9675E-01
903.51	-4.7753E-01
903.82	-4.5545E-01
904.12	-5.3200E-01
904.43	-5.1058E-01
904.73	-4.5104E-01
905.03	-5.2222E-01
905.34	-5.4051E-01
905.64	-4.7794E-01
905.95	-5.5173E-01
906.25	-5.3952E-01
906.56	-5.0026E-01
906.86	-5.3476E-01
907.17	-4.7380E-01
907.47	-4.6118E-01
907.78	-5.4552E-01
908.08	-5.2877E-01
908.38	-5.3940E-01
908.69	-5.5670E-01
908.99	-5.9120E-01
909.30	-5.3926E-01
909.60	-5.9960E-01
909.90	-4.7918E-01
910.21	-4.9467E-01
910.51	-5.3027E-01
910.81	-5.5525E-01
911.12	-5.1122E-01
911.42	-5.0659E-01
911.73	-5.0536E-01
912.03	-5.0675E-01
912.33	-6.9666E-01
912.64	-6.1447E-01
912.94	-5.3301E-01
913.24	-5.4697E-01
913.55	-5.1936E-01
913.85	-6.5541E-01
914.15	-6.8259E-01
914.45	-6.8807E-01
914.76	-6.0611E-01
915.06	-5.6749E-01
915.36	-5.5800E-01
915.67	-6.0142E-01
915.97	-6.4634E-01
916.27	-7.3024E-01
916.57	-5.7992E-01
916.88	-5.7397E-01
917.18	-6.1164E-01
917.48	-5.0322E-01
917.78	-5.4773E-01
918.09	-5.7943E-01
918.39	-5.8939E-01
918.69	-5.5501E-01
918.99	-6.5580E-01
919.30	-6.8143E-01
919.60	-8.0286E-01
919.90	-6.1931E-01
920.20	-4.9581E-01
920.50	-6.7251E-01
920.81	-6.7920E-01
921.11	-5.8559E-01
921.41	-6.1416E-01
921.71	-6.2821E-01
922.01	-7.8643E-01
922.32	-7.7028E-01
922.62	-7.2502E-01
922.92	-7.1666E-01
923.22	-6.2168E-01
923.52	-7.2900E-01
923.82	-6.0104E-01
924.12	-6.4736E-01
924.43	-7.3158E-01
924.73	-6.7821E-01
925.03	-7.5673E-01
925.33	-6.6478E-01
925.63	-6.5851E-01
925.93	-7.1347E-01
926.23	-6.8256E-01
926.53	-6.6740E-01
926.83	-6.4048E-01
927.13	-6.9844E-01
927.44	-7.3598E-01
927.74	-7.1589E-01
928.04	-7.9133E-01
928.34	-7.6347E-01
928.64	-8.3669E-01
928.94	-7.6617E-01
929.24	-8.9694E-01
929.54	-7.3907E-01
929.84	-8.3415E-01
930.14	-9.4472E-01
930.44	-8.0496E-01
930.74	-7.6104E-01
931.04	-8.3009E-01
931.34	-8.1909E-01
931.64	-9.3149E-01
931.94	-9.4698E-01
932.24	-8.9909E-01
932.54	-7.3204E-01
932.84	-8.7075E-01
933.14	-9.8667E-01
933.44	-8.7861E-01
933.74	-9.6378E-01
934.04	-8.7989E-01
934.34	-8.8701E-01
934.64	-8.2363E-01
934.94	-1.0059E00
935.24	-1.0922E00
935.54	-1.1792E00
935.83	-1.1012E00
936.13	-8.6303E-01
936.43	-8.8829E-01
936.73	-9.7845E-01
937.03	-1.0539E00
937.33	-9.2523E-01
937.63	-1.1494E00
937.93	-1.0189E00
938.23	-1.1587E00
938.53	-1.3086E00
938.82	-1.3295E00
939.12	-1.2377E00
939.42	-1.2918E00
939.72	-1.1222E00
940.02	-1.1347E00
940.32	-9.9275E-01
940.62	-1.2415E00
940.91	-1.4613E00
941.21	-1.4862E00
941.51	-1.0523E00
941.81	-1.1095E00
942.11	-1.2641E00
942.40	-1.7239E00
942.70	-1.5374E00
943.00	-1.5717E00
943.30	-1.6858E00
943.60	-2.1546E00
943.89	-1.7054E00
944.19	-1.4978E00
944.49	-1.5058E00
944.79	-1.6874E00
945.08	-2.0304E00
945.38	-1.8273E00
945.68	-1.1932E00
945.98	-1.2972E00
946.27	-1.7066E00
946.57	-1.4788E00
946.87	-1.8003E00
947.17	-1.6620E00
947.46	-1.7345E00
947.76	-1.5183E00
948.06	-1.4412E00
948.35	-1.4943E00
948.65	-1.8296E00
948.95	-1.8048E00
949.24	-1.6934E00
949.54	-1.7777E00
949.84	-1.4987E00
950.13	-1.3976E00
950.43	-1.6860E00
950.73	-1.5954E00
951.02	-1.6851E00
951.32	-1.5027E00
951.62	-1.5604E00
951.91	-1.6855E00
952.21	-1.6846E00
952.51	-1.2832E00
952.80	-1.2264E00
953.10	-1.6088E00
953.39	-1.4170E00
953.69	-1.4255E00
953.99	-1.4639E00
954.28	-1.7099E00
954.58	-1.9370E00
954.87	-1.6819E00
955.17	-1.6375E00
955.46	-1.0525E00
955.76	-1.0560E00
956.06	-1.5403E00
956.35	-1.4750E00
956.65	-1.4649E00
956.94	-1.3610E00
957.24	-1.6897E00
957.53	-1.4564E00
957.83	-1.6270E00
958.12	-1.5963E00
958.42	-1.5299E00
958.71	-2.0788E00
959.01	-1.9540E00
959.30	-1.5836E00
959.60	-1.3957E00
959.89	-1.7186E00
960.19	-1.8323E00
960.48	-1.4873E00
960.78	-1.4181E00
961.07	-1.3514E00
961.37	-1.3808E00
961.66	-1.1747E00
961.95	-1.4561E00
962.25	-1.5293E00
962.54	-1.8221E00
962.84	-1.6020E00
963.13	-1.8151E00
963.43	-2.0079E00
963.72	-1.9014E00
964.01	-1.7039E00
964.31	-1.9975E00
964.60	-1.7769E00
964.90	-1.9534E00
965.19	-1.2595E00
965.48	-1.3915E00
965.78	-1.5181E00
966.07	-1.7817E00
966.36	-1.4515E00
966.66	-1.7663E00
966.95	-1.6143E00
967.25	-1.4971E00
967.54	-1.6559E00
967.83	-1.7713E00
968.13	-1.7473E00
968.42	-1.8677E00
968.71	-1.6997E00
969.00	-1.6129E00
969.30	-1.8075E00
969.59	-1.6561E00
969.88	-1.5650E00
970.18	-2.0089E00
970.47	-1.6566E00
970.76	-2.3837E00
971.05	-2.0772E00
971.35	-1.7118E00
971.64	-1.7184E00
971.93	-1.9076E00
972.23	-1.9354E00
972.52	-1.9458E00
972.81	-1.9424E00
973.10	-1.8641E00
973.39	-2.3582E00
973.69	-2.1357E00
973.98	-2.1473E00
974.27	-2.2038E00
974.56	-1.9328E00
974.86	-1.6345E00
975.15	-1.8838E00
975.44	-1.7369E00
975.73	-1.9918E00
976.02	-2.4085E00
976.31	-2.0193E00
976.61	-2.0191E00
976.90	-1.9186E00
977.19	-1.9335E00
977.48	-2.0062E00
977.77	-1.5089E00
978.06	-1.6823E00
978.35	-1.7788E00
978.65	-2.3616E00
978.94	-2.3474E00
979.23	-2.0976E00
979.52	-2.4918E00
979.81	-2.5762E00
980.10	-2.8003E00
980.39	-3.0932E00
980.68	-2.7658E00
980.97	-2.4968E00
981.27	-2.4123E00
981.56	-2.5858E00
981.85	-2.0051E00
982.14	-2.5868E00
982.43	-2.3883E00
982.72	-2.2027E00
983.01	-2.6209E00
983.30	-2.3920E00
983.59	-2.4832E00
983.88	-2.6180E00
984.17	-1.8832E00
984.46	-1.8315E00
984.75	-2.7710E00
985.04	-2.4024E00
985.33	-2.6946E00
985.62	-3.4220E00
985.91	-3.1812E00
986.20	-2.3126E00
986.49	-2.3336E00
986.78	-2.3576E00
987.07	-3.2282E00
987.36	-3.2893E00
987.65	-2.9284E00
987.94	-3.1454E00
988.23	-2.8583E00
988.52	-2.4866E00
988.81	-2.7429E00
989.10	-2.8142E00
989.38	-2.6118E00
989.67	-2.6763E00
989.96	-3.2137E00
990.25	-2.9577E00
990.54	-2.7988E00
990.83	-2.5726E00
991.12	-2.9929E00
991.41	-2.6167E00
991.70	-2.5755E00
991.99	-3.4007E00
992.27	-3.2788E00
992.56	-3.7628E00
992.85	-3.7337E00
993.14	-3.3821E00
993.43	-3.8575E00
993.72	-3.7634E00
994.00	-3.3056E00
994.29	-3.1255E00
994.58	-3.9151E00
994.87	-3.9354E00
995.16	-3.7264E00
995.45	-4.0286E00
995.73	-3.5196E00
996.02	-3.3175E00
996.31	-3.5072E00
996.60	-3.9528E00
996.89	-4.9683E00
997.17	-4.5901E00
997.46	-4.6359E00
997.75	-3.5130E00
998.04	-3.7567E00
998.32	-3.5734E00
998.61	-3.3120E00
998.90	-3.9862E00
999.19	-3.8843E00
999.47	-3.9296E00
999.76	-4.3120E00
1000.05	-3.4917E00
1000.33	-2.4836E00
1000.62	-3.1147E00
1000.91	-4.2110E00
1001.19	-4.2888E00
1001.48	-4.1399E00
1001.77	-4.7703E00
1002.06	-5.4049E00
1002.34	-4.1846E00
1002.63	-4.2717E00
1002.92	-3.4410E00
1003.20	-4.8112E00
1003.49	-4.3442E00
1003.77	-5.4681E00
1004.06	-4.0781E00
1004.35	-3.9733E00
1004.63	-5.2232E00
1004.92	-5.3867E00
1005.21	-5.8363E00
1005.49	-6.5482E00
1005.78	-5.0342E00
1006.06	-4.3078E00
1006.35	-3.6562E00
1006.64	-4.8944E00
1006.92	-5.1556E00
1007.21	-5.9900E00
1007.49	-5.4061E00
1007.78	-5.7596E00
1008.06	-6.4293E00
1008.35	-6.2813E00
1008.64	-5.6755E00
1008.92	-5.9195E00
1009.21	-6.3953E00
1009.49	-5.9771E00
1009.78	-5.9055E00
1010.06	-7.6635E00
1010.35	-4.8610E00
1010.63	-5.0664E00
1010.92	-5.6236E00
1011.20	-6.8132E00
1011.49	-7.7268E00
1011.77	-7.0970E00
1012.06	-6.9597E00
1012.34	-5.7307E00
1012.63	-7.0734E00
1012.91	-6.9521E00
1013.20	-7.0876E00
1013.48	-6.2892E00
1013.76	-6.1731E00
1014.05	-7.6637E00
1014.33	-7.8529E00
1014.62	-8.1160E00
1014.90	-6.1540E00
1015.19	-5.8038E00
1015.47	-6.7868E00
1015.75	-7.1425E00
1016.04	-7.7495E00
1016.32	-8.5201E00
1016.61	-6.8060E00
1016.89	-9.4248E00
1017.17	-9.4048E00
1017.46	-8.4624E00
1017.74	-5.6390E00
1018.02	-9.2211E00
1018.31	-1.0338E01
1018.59	-7.4941E00
1018.87	-6.4747E00
1019.16	-8.1419E00
1019.44	-6.7394E00
1019.72	-7.6711E00
1020.01	-8.9612E00
1020.29	-9.5485E00
1020.57	-8.1003E00
1020.86	-9.2290E00
1021.14	-7.5093E00
1021.42	-8.7610E00
1021.71	-8.4845E00
1021.99	-9.3104E00
1022.27	-1.1225E01
1022.55	-1.0754E01
1022.84	-1.0978E01
1023.12	-1.1055E01
1023.40	-9.5575E00
1023.68	-1.0799E01
1023.97	-1.0433E01
1024.25	-7.0685E00
1024.53	-7.8929E00
1024.81	-7.8929E00
>>>>>End Processed Spectral Data<<<<<
