SpectraSuite Data File
++++++++++++++++++++++++++++++++++++
Date: Thu May 07 12:22:47 BST 2015
User: lew507
Dark Spectrum Present: Yes
Reference Spectrum Present: No
Number of Sampled Component Spectra: 1
Spectrometers: JAZA1505
Integration Time (usec): 200000 (JAZA1505)
Spectra Averaged: 1 (JAZA1505)
Boxcar Smoothing: 0 (JAZA1505)
Correct for Electrical Dark: No (JAZA1505)
Strobe/Lamp Enabled: No (JAZA1505)
Correct for Detector Non-linearity: No (JAZA1505)
Correct for Stray Light: No (JAZA1505)
Number of Pixels in Processed Spectrum: 2048
>>>>>Begin Processed Spectral Data<<<<<
339.60	-91.27
339.98	-91.27
340.36	-91.27
340.74	-194.51
341.12	-230.42
341.50	-113.71
341.88	-118.95
342.26	-107.73
342.64	-76.31
343.02	-154.11
343.40	-107.73
343.78	-66.58
344.17	-140.65
344.55	-121.19
344.93	-167.58
345.31	-74.06
345.69	-125.68
346.07	-159.35
346.45	-139.90
346.83	-105.48
347.21	-65.83
347.59	-84.54
347.97	-99.50
348.35	-118.20
348.73	-109.97
349.11	-113.71
349.49	-110.72
349.87	-130.92
350.25	-80.80
350.63	-154.11
351.01	-105.48
351.39	-106.23
351.77	-64.34
352.15	-127.18
352.53	-64.34
352.91	-141.39
353.29	-127.93
353.67	-136.16
354.05	-76.31
354.43	-137.65
354.81	-93.51
355.19	-124.94
355.57	-52.37
355.95	-59.10
356.33	-79.30
356.71	-34.41
357.09	-125.68
357.47	-65.09
357.84	-80.05
358.22	-4.49
358.60	-61.35
358.98	-149.62
359.36	-101.00
359.74	-113.71
360.12	-113.71
360.50	-106.23
360.88	-160.10
361.26	-168.33
361.64	-50.12
362.02	-133.16
362.39	-43.39
362.77	-39.65
363.15	-110.72
363.53	-72.57
363.91	-115.96
364.29	-82.29
364.67	-133.16
365.05	-130.92
365.42	-92.02
365.80	-112.97
366.18	-116.71
366.56	-124.94
366.94	-135.41
367.32	-14.96
367.70	-103.99
368.07	-121.19
368.45	-111.47
368.83	-113.71
369.21	-102.49
369.59	-123.44
369.97	-108.48
370.34	-92.77
370.72	-131.67
371.10	-102.49
371.48	-110.72
371.86	-107.73
372.23	-129.42
372.61	-171.32
372.99	-99.50
373.37	-41.89
373.75	-144.39
374.12	-2.24
374.50	-227.43
374.88	-98.00
375.26	-74.06
375.64	-92.02
376.01	-96.51
376.39	-124.94
376.77	-94.26
377.15	-115.21
377.52	-62.09
377.90	-122.69
378.28	-82.29
378.66	-125.68
379.03	-103.24
379.41	-129.42
379.79	-20.95
380.17	-77.80
380.54	-40.40
380.92	-83.79
381.30	-162.34
381.67	-72.57
382.05	-92.02
382.43	-111.47
382.81	-77.06
383.18	-44.89
383.56	-136.16
383.94	-21.70
384.31	48.63
384.69	-68.83
385.07	-24.69
385.44	28.43
385.82	1.50
386.20	-6.73
386.57	6.73
386.95	35.16
387.33	59.85
387.70	80.80
388.08	-14.96
388.46	41.15
388.83	116.71
389.21	187.78
389.59	88.28
389.96	213.21
390.34	169.82
390.72	220.69
391.09	298.50
391.47	291.02
391.84	403.98
392.22	378.55
392.60	454.11
392.97	581.29
393.35	627.67
393.73	668.82
394.10	713.70
394.48	817.69
394.85	937.39
395.23	1033.15
395.61	1104.97
395.98	1241.87
396.36	1466.31
396.73	1545.61
397.11	1683.26
397.48	1909.19
397.86	2053.58
398.24	2243.60
398.61	2508.43
398.99	2809.93
399.36	3081.49
399.74	3308.17
400.11	3480.24
400.49	4006.16
400.86	4253.79
401.24	4594.93
401.61	4997.42
401.99	5558.51
402.36	5854.01
402.74	6231.06
403.11	6844.52
403.49	7424.31
403.86	8026.54
404.24	8393.12
404.61	9099.34
404.99	9831.00
405.36	10609.79
405.74	11304.79
406.11	12154.65
406.49	13210.99
406.86	14020.45
407.24	14752.86
407.61	15651.34
407.99	16699.46
408.36	17309.92
408.74	18378.23
409.11	19650.77
409.49	20191.66
409.86	21302.62
410.24	22116.57
410.61	22759.20
410.98	24066.16
411.36	24690.83
411.73	25968.62
412.11	26184.82
412.48	26710.00
412.86	27349.64
413.23	27909.23
413.60	28001.25
413.98	28381.29
414.35	28609.47
414.73	28563.83
415.10	28520.44
415.47	27690.03
415.85	28331.92
416.22	27199.27
416.60	26822.97
416.97	25934.20
417.34	25352.17
417.72	24599.56
418.09	23582.13
418.46	23046.48
418.84	22142.75
419.21	21224.81
419.58	20501.38
419.96	19593.17
420.33	18841.31
420.70	18166.51
421.08	17716.89
421.45	16794.47
421.82	16142.11
422.20	15409.70
422.57	14819.44
422.94	14662.33
423.32	13804.24
423.69	12875.83
424.06	12893.79
424.44	11943.68
424.81	11711.76
425.18	11423.74
425.56	10873.87
425.93	10502.81
426.30	10081.62
426.67	9613.30
427.05	9171.91
427.42	9114.30
427.79	8711.82
428.17	8290.63
428.54	7894.87
428.91	7570.94
429.28	7309.10
429.66	6912.60
430.03	6905.11
430.40	6463.73
430.77	6180.94
431.15	5684.94
431.52	5775.46
431.89	5289.18
432.26	5244.30
432.63	4966.00
433.01	4847.05
433.38	4394.44
433.75	4229.85
434.12	4073.49
434.50	4140.08
434.87	3880.48
435.24	3651.56
435.61	3516.90
435.98	3365.78
436.36	3228.12
436.73	3192.21
437.10	3065.03
437.47	2739.60
437.84	2695.46
438.21	2542.10
438.59	2545.84
438.96	2485.24
439.33	2385.74
439.70	2300.46
440.07	2087.99
440.44	2084.25
440.81	1879.27
441.19	1948.84
441.56	1829.14
441.93	1873.28
442.30	1781.27
442.67	1562.82
443.04	1679.52
443.41	1390.75
443.78	1454.34
444.16	1336.88
444.53	1331.65
444.90	1369.05
445.27	1218.68
445.64	1025.67
446.01	1042.13
446.38	1066.07
446.75	999.48
447.12	965.07
447.49	959.83
447.86	888.76
448.24	779.54
448.61	757.84
448.98	695.75
449.35	669.56
449.72	762.33
450.09	624.68
450.46	674.05
450.83	530.41
451.20	596.25
451.57	499.74
451.94	480.29
452.31	519.19
452.68	484.03
453.05	467.57
453.42	392.01
453.79	371.81
454.16	371.81
454.53	409.97
454.90	395.75
455.27	363.58
455.64	402.49
456.01	245.38
456.38	248.37
456.75	243.89
457.12	255.11
457.49	272.31
457.86	203.49
458.23	147.38
458.60	294.01
458.97	147.38
459.34	201.99
459.71	193.01
460.08	145.13
460.45	157.10
460.82	106.98
461.18	221.44
461.55	139.90
461.92	190.02
462.29	142.14
462.66	111.47
463.03	115.21
463.40	119.70
463.77	102.49
464.14	119.70
464.51	47.13
464.88	155.61
465.25	106.23
465.61	116.71
465.98	118.20
466.35	-14.21
466.72	106.23
467.09	145.88
467.46	38.15
467.83	74.06
468.20	83.79
468.56	-11.97
468.93	47.88
469.30	66.58
469.67	-65.09
470.04	69.57
470.41	53.12
470.77	32.92
471.14	23.94
471.51	-9.73
471.88	6.73
472.25	48.63
472.62	104.74
472.98	-77.06
473.35	-25.44
473.72	53.12
474.09	7.48
474.46	101.74
474.82	58.35
475.19	-26.93
475.56	-75.56
475.93	-30.67
476.29	58.35
476.66	-57.60
477.03	-105.48
477.40	16.46
477.77	-72.57
478.13	41.15
478.50	3.74
478.87	-29.18
479.24	-19.45
479.60	-82.29
479.97	-61.35
480.34	-29.18
480.71	-40.40
481.07	-38.15
481.44	14.96
481.81	-55.36
482.17	-24.69
482.54	-8.98
482.91	-32.17
483.28	-101.00
483.64	-47.88
484.01	-3.74
484.38	-1.50
484.74	-45.64
485.11	-17.95
485.48	-39.65
485.84	-115.96
486.21	-172.07
486.58	-110.72
486.94	-38.15
487.31	-143.64
487.68	-127.93
488.04	-29.18
488.41	-29.92
488.78	-37.41
489.14	-17.95
489.51	-68.08
489.87	-24.69
490.24	-18.70
490.61	-24.69
490.97	-35.91
491.34	-77.06
491.71	-45.64
492.07	-74.06
492.44	-5.98
492.80	-124.94
493.17	-65.09
493.54	-25.44
493.90	-82.29
494.27	-4.49
494.63	-118.20
495.00	-160.85
495.37	-44.89
495.73	-106.98
496.10	-109.22
496.46	-100.25
496.83	-88.28
497.19	-15.71
497.56	-47.13
497.92	-89.77
498.29	-12.72
498.65	-81.54
499.02	-111.47
499.39	-127.18
499.75	-32.92
500.12	-94.26
500.48	-122.69
500.85	-191.52
501.21	-79.30
501.58	-106.98
501.94	-101.74
502.31	-103.24
502.67	-142.89
503.04	-47.88
503.40	-88.28
503.77	-75.56
504.13	-59.10
504.50	-118.95
504.86	-66.58
505.23	-76.31
505.59	-40.40
505.95	-120.45
506.32	-82.29
506.68	-83.79
507.05	-89.03
507.41	-23.94
507.78	-19.45
508.14	-142.89
508.51	-122.69
508.87	-58.35
509.23	-133.16
509.60	-176.56
509.96	-99.50
510.33	-157.85
510.69	-68.08
511.05	-103.99
511.42	-178.05
511.78	-43.39
512.15	-96.51
512.51	-53.86
512.87	-2.99
513.24	-110.72
513.60	-109.23
513.97	-106.98
514.33	-131.67
514.69	-121.94
515.06	-38.15
515.42	-109.97
515.78	-119.70
516.15	-149.62
516.51	-100.25
516.87	-91.27
517.24	-82.29
517.60	243.89
517.96	-106.23
518.33	-102.49
518.69	-117.45
519.05	-59.85
519.42	-120.45
519.78	-166.08
520.14	-52.37
520.51	-61.35
520.87	-59.85
521.23	-154.86
521.59	-139.15
521.96	-47.13
522.32	-143.64
522.68	-163.09
523.05	-108.48
523.41	-72.57
523.77	-106.98
524.13	-119.70
524.50	-139.90
524.86	-87.53
525.22	-119.70
525.58	-90.52
525.95	-141.39
526.31	-68.08
526.67	-159.35
527.03	-121.19
527.39	-129.42
527.76	-54.61
528.12	-54.61
528.48	-86.03
528.84	-158.60
529.20	-128.68
529.57	-213.21
529.93	-89.03
530.29	-133.16
530.65	-106.23
531.01	-156.36
531.38	-190.77
531.74	-141.39
532.10	-183.29
532.46	-83.04
532.82	-112.22
533.18	-37.41
533.55	-87.53
533.91	-22.44
534.27	-109.97
534.63	-119.70
534.99	-71.07
535.35	-98.00
535.71	-84.54
536.08	-144.39
536.44	-158.60
536.80	-103.24
537.16	-144.39
537.52	-127.18
537.88	-154.86
538.24	-162.34
538.60	-115.21
538.96	-104.74
539.32	-84.54
539.69	-235.66
540.05	-74.06
540.41	-118.20
540.77	-83.79
541.13	-92.02
541.49	-166.08
541.85	-74.06
542.21	-139.90
542.57	-96.51
542.93	-76.31
543.29	-139.15
543.65	-84.54
544.01	-113.71
544.37	-133.91
544.73	-187.03
545.09	-125.68
545.45	-92.77
545.81	-120.45
546.17	-170.57
546.53	-112.22
546.89	-87.53
547.25	-65.83
547.61	-103.99
547.97	-171.32
548.33	-74.81
548.69	-154.11
549.05	-139.15
549.41	-121.94
549.77	-4.49
550.13	-145.13
550.49	-123.44
550.85	-160.10
551.21	-98.75
551.57	-140.65
551.93	-41.15
552.29	-139.90
552.65	-203.49
553.01	-110.72
553.37	-160.10
553.73	-44.14
554.09	-137.65
554.44	-14.96
554.80	-74.81
555.16	-82.29
555.52	-57.60
555.88	-83.79
556.24	-168.33
556.60	-113.71
556.96	-81.54
557.32	-98.75
557.68	-64.34
558.03	-98.75
558.39	-183.29
558.75	-29.92
559.11	-153.36
559.47	-127.18
559.83	-18.70
560.19	-132.42
560.54	-164.59
560.90	-118.20
561.26	-101.00
561.62	-46.38
561.98	-80.80
562.34	-145.13
562.69	-140.65
563.05	-160.85
563.41	-95.76
563.77	-141.39
564.13	-151.87
564.48	-80.80
564.84	-142.89
565.20	-151.12
565.56	-84.54
565.92	-170.57
566.27	-157.85
566.63	-197.50
566.99	-152.62
567.35	-48.63
567.70	-127.18
568.06	-44.14
568.42	-95.01
568.78	-101.74
569.13	-98.00
569.49	-65.09
569.85	-97.26
570.21	-109.23
570.56	-82.29
570.92	-199.75
571.28	-95.76
571.63	-152.62
571.99	-113.71
572.35	-167.58
572.71	-94.26
573.06	-71.82
573.42	-88.28
573.78	-24.69
574.13	-170.57
574.49	-145.88
574.85	-121.19
575.20	-96.51
575.56	-137.65
575.92	-128.68
576.27	-201.99
576.63	-100.25
576.99	-84.54
577.34	-103.24
577.70	-159.35
578.06	-130.17
578.41	-163.84
578.77	-16.46
579.13	-95.76
579.48	-184.78
579.84	-92.77
580.19	-91.27
580.55	-139.90
580.91	-70.32
581.26	-205.73
581.62	-102.49
581.97	-71.82
582.33	-95.76
582.69	-148.13
583.04	-134.66
583.40	-176.56
583.75	-118.95
584.11	-164.59
584.46	-186.28
584.82	-190.77
585.17	-80.80
585.53	-139.15
585.89	-101.00
586.24	-119.70
586.60	-109.97
586.95	-75.56
587.31	-41.89
587.66	-128.68
588.02	-146.63
588.37	-109.97
588.73	-133.16
589.08	-112.22
589.44	-84.54
589.79	-88.28
590.15	-80.05
590.50	-118.95
590.86	-84.54
591.21	-163.84
591.57	-154.86
591.92	-172.81
592.28	-207.23
592.63	-120.45
592.99	-118.20
593.34	-121.94
593.69	-107.73
594.05	-125.68
594.40	-145.13
594.76	-100.25
595.11	-115.21
595.47	-115.21
595.82	-101.74
596.18	-228.18
596.53	-103.24
596.88	-94.26
597.24	-135.41
597.59	-148.13
597.95	-142.89
598.30	-32.17
598.65	-109.23
599.01	-36.66
599.36	-142.89
599.71	-110.72
600.07	-150.37
600.42	-139.90
600.78	-142.89
601.13	-89.77
601.48	-122.69
601.84	-118.20
602.19	-109.22
602.54	-207.98
602.90	-143.64
603.25	-192.27
603.60	-83.04
603.96	-74.81
604.31	-111.47
604.66	-96.51
605.02	-41.15
605.37	-216.21
605.72	-119.70
606.08	-143.64
606.43	-86.78
606.78	-105.48
607.13	-137.65
607.49	-122.69
607.84	-94.26
608.19	-130.17
608.55	-177.30
608.90	-143.64
609.25	-147.38
609.60	-90.52
609.96	-98.00
610.31	-120.45
610.66	-152.62
611.01	-69.57
611.37	-133.91
611.72	-143.64
612.07	-186.28
612.42	-95.76
612.77	-180.30
613.13	-80.80
613.48	-142.89
613.83	-56.86
614.18	-133.91
614.53	-113.71
614.89	-104.74
615.24	-71.07
615.59	-109.97
615.94	-101.74
616.29	-77.80
616.65	-196.01
617.00	-101.74
617.35	-154.11
617.70	-122.69
618.05	-156.36
618.40	-140.65
618.75	-136.91
619.11	-156.36
619.46	-74.81
619.81	-137.65
620.16	-109.97
620.51	-55.36
620.86	-113.71
621.21	-2.24
621.56	-72.57
621.92	-186.28
622.27	-150.37
622.62	-30.67
622.97	-79.30
623.32	-150.37
623.67	-65.83
624.02	-163.84
624.37	-127.93
624.72	-132.42
625.07	-186.28
625.42	-111.47
625.77	-122.69
626.12	-105.48
626.47	-177.30
626.82	-115.21
627.18	-150.37
627.53	-60.60
627.88	-122.69
628.23	-101.74
628.58	-78.55
628.93	-178.05
629.28	-108.48
629.63	-197.50
629.98	-118.20
630.33	-172.07
630.68	-81.54
631.03	-78.55
631.38	-171.32
631.73	-35.91
632.08	-53.12
632.43	-46.38
632.78	-54.61
633.12	-89.03
633.47	-95.01
633.82	-62.84
634.17	-135.41
634.52	-157.10
634.87	-102.49
635.22	-163.84
635.57	-84.54
635.92	-175.06
636.27	-70.32
636.62	-180.30
636.97	-136.91
637.32	-63.59
637.67	-103.99
638.01	-146.63
638.36	-71.07
638.71	-129.42
639.06	-185.53
639.41	-92.77
639.76	-56.86
640.11	-60.60
640.46	-127.18
640.81	-138.40
641.15	-75.56
641.50	-165.33
641.85	-106.98
642.20	-166.08
642.55	-135.41
642.90	-164.59
643.24	-99.50
643.59	-44.89
643.94	-72.57
644.29	-90.52
644.64	-120.45
644.99	-112.97
645.33	-92.77
645.68	-103.99
646.03	-83.04
646.38	-60.60
646.72	-79.30
647.07	-76.31
647.42	-101.74
647.77	-170.57
648.12	-40.40
648.46	-188.53
648.81	-127.93
649.16	-130.17
649.51	-83.04
649.85	-172.07
650.20	-86.78
650.55	-113.71
650.90	-151.87
651.24	-58.35
651.59	-186.28
651.94	-140.65
652.28	-207.98
652.63	-92.02
652.98	-173.56
653.33	-180.30
653.67	-93.51
654.02	-141.39
654.37	-93.51
654.71	-56.11
655.06	-47.13
655.41	-89.77
655.75	-55.36
656.10	-59.85
656.45	-136.91
656.79	-123.44
657.14	-84.54
657.49	-136.16
657.83	-102.49
658.18	-151.12
658.53	-94.26
658.87	-112.22
659.22	-169.07
659.56	-118.95
659.91	-57.60
660.26	-75.56
660.60	-80.05
660.95	-163.84
661.29	-82.29
661.64	-203.49
661.99	-187.03
662.33	-65.09
662.68	-66.58
663.02	-144.39
663.37	-116.71
663.72	-101.74
664.06	-136.16
664.41	-133.91
664.75	-89.03
665.10	-206.48
665.44	-139.15
665.79	53.86
666.13	-193.01
666.48	-63.59
666.82	-115.96
667.17	-121.19
667.51	-39.65
667.86	-112.97
668.20	-41.15
668.55	-99.50
668.89	-110.72
669.24	-110.72
669.58	-107.73
669.93	-130.92
670.27	-86.78
670.62	-121.19
670.96	-98.75
671.31	-89.77
671.65	-109.23
672.00	-179.55
672.34	-107.73
672.69	-109.97
673.03	-161.59
673.38	-74.06
673.72	-159.35
674.06	-95.01
674.41	-157.85
674.75	-120.45
675.10	-14.21
675.44	-172.81
675.78	-155.61
676.13	-95.01
676.47	-141.39
676.82	-89.77
677.16	-103.24
677.50	-192.27
677.85	-113.71
678.19	-175.81
678.54	-167.58
678.88	-201.99
679.22	-51.62
679.57	-130.17
679.91	-109.22
680.25	-89.77
680.60	-96.51
680.94	-109.22
681.28	-115.96
681.63	-122.69
681.97	-141.39
682.31	-102.49
682.66	-57.60
683.00	-102.49
683.34	-132.42
683.69	-165.33
684.03	-68.83
684.37	-158.60
684.71	-144.39
685.06	-115.21
685.40	8.98
685.74	-115.21
686.09	-112.22
686.43	-144.39
686.77	-88.28
687.11	-98.00
687.46	-143.64
687.80	-154.11
688.14	-148.13
688.48	-136.16
688.82	-74.81
689.17	-161.59
689.51	-130.92
689.85	-187.78
690.19	-73.32
690.54	-48.63
690.88	-8.98
691.22	-103.24
691.56	-160.85
691.90	-139.90
692.25	-78.55
692.59	-141.39
692.93	-124.94
693.27	-88.28
693.61	-144.39
693.95	-160.10
694.30	-162.34
694.64	-128.68
694.98	-168.33
695.32	-179.55
695.66	-65.83
696.00	-120.45
696.34	-119.70
696.68	-104.74
697.03	-133.16
697.37	-68.08
697.71	-162.34
698.05	-127.93
698.39	-83.79
698.73	-154.86
699.07	-123.44
699.41	-163.84
699.75	-121.94
700.09	-73.32
700.44	-107.73
700.78	-196.01
701.12	-53.12
701.46	-130.92
701.80	-130.92
702.14	-148.88
702.48	-121.94
702.82	-198.25
703.16	-201.24
703.50	-60.60
703.84	-89.03
704.18	-179.55
704.52	-114.46
704.86	-136.91
705.20	-66.58
705.54	-133.91
705.88	-77.06
706.22	-187.03
706.56	-73.32
706.90	-106.23
707.24	-97.26
707.58	-123.44
707.92	-125.68
708.26	-88.28
708.60	-95.01
708.94	-106.23
709.28	-112.22
709.62	-59.10
709.96	-124.19
710.30	-178.80
710.63	-116.71
710.97	-114.46
711.31	-39.65
711.65	-160.85
711.99	-124.19
712.33	-128.68
712.67	-136.16
713.01	-139.90
713.35	-98.75
713.69	-141.39
714.03	-106.23
714.36	-124.94
714.70	-114.46
715.04	-133.16
715.38	-184.04
715.72	-124.94
716.06	-201.99
716.40	-178.05
716.73	-101.00
717.07	-126.43
717.41	-124.94
717.75	-85.29
718.09	-118.95
718.43	-139.15
718.76	-92.02
719.10	-141.39
719.44	-113.71
719.78	-160.85
720.12	-150.37
720.45	-99.50
720.79	-102.49
721.13	-143.64
721.47	-134.66
721.80	-154.11
722.14	-93.51
722.48	-115.21
722.82	-11.97
723.16	-150.37
723.49	-64.34
723.83	-89.77
724.17	-111.47
724.50	-121.94
724.84	-106.23
725.18	-173.56
725.52	-194.51
725.85	-132.42
726.19	-65.83
726.53	-182.54
726.87	-160.10
727.20	-181.04
727.54	-104.74
727.88	-112.22
728.21	-129.42
728.55	-80.80
728.89	-166.83
729.22	-191.52
729.56	-114.46
729.90	-92.02
730.23	-56.86
730.57	-95.01
730.91	-80.05
731.24	-115.96
731.58	-130.17
731.91	-114.46
732.25	-56.11
732.59	-68.83
732.92	-68.83
733.26	-122.69
733.60	-223.69
733.93	-148.13
734.27	-149.62
734.60	-77.06
734.94	-83.79
735.27	-112.97
735.61	-88.28
735.95	-89.77
736.28	-82.29
736.62	-139.90
736.95	-152.62
737.29	-222.94
737.62	-193.76
737.96	-139.90
738.29	-119.70
738.63	-86.03
738.97	-118.20
739.30	-53.86
739.64	-27.68
739.97	-52.37
740.31	-103.24
740.64	-137.65
740.98	-207.98
741.31	-145.88
741.65	-210.97
741.98	-97.26
742.32	-119.70
742.65	-106.23
742.98	-119.70
743.32	-49.38
743.65	-150.37
743.99	-133.16
744.32	-78.55
744.66	-148.88
744.99	-87.53
745.33	-100.25
745.66	-145.13
745.99	-169.07
746.33	-116.71
746.66	-247.63
747.00	-164.59
747.33	-195.26
747.67	-97.26
748.00	-89.77
748.33	-135.41
748.67	-41.15
749.00	-76.31
749.33	-118.20
749.67	-142.14
750.00	-115.21
750.34	-100.25
750.67	-103.24
751.00	-161.59
751.34	-119.70
751.67	-157.85
752.00	-115.21
752.34	-124.94
752.67	-83.79
753.00	-145.13
753.34	-98.75
753.67	-103.24
754.00	-174.31
754.34	-113.71
754.67	-71.07
755.00	-124.19
755.33	-188.53
755.67	-155.61
756.00	-106.98
756.33	-85.29
756.67	-65.09
757.00	-128.68
757.33	-109.23
757.66	-136.91
758.00	-197.50
758.33	-137.65
758.66	-148.13
758.99	-90.52
759.33	-124.19
759.66	-115.96
759.99	-181.04
760.32	-93.51
760.65	-115.21
760.99	-151.12
761.32	-107.73
761.65	-135.41
761.98	-75.56
762.31	-94.26
762.65	-165.33
762.98	-151.12
763.31	-109.22
763.64	-166.83
763.97	-129.42
764.30	-14.21
764.64	-98.75
764.97	-133.16
765.30	-140.65
765.63	-141.39
765.96	-152.62
766.29	-63.59
766.62	-118.20
766.95	-76.31
767.29	-99.50
767.62	-221.44
767.95	-121.19
768.28	-177.30
768.61	-155.61
768.94	-123.44
769.27	-59.10
769.60	-156.36
769.93	-154.11
770.26	-121.94
770.59	-75.56
770.92	-121.19
771.25	-98.00
771.59	-214.71
771.92	-145.13
772.25	-88.28
772.58	-74.81
772.91	-83.04
773.24	-146.63
773.57	-150.37
773.90	-76.31
774.23	-172.81
774.56	-166.08
774.89	-137.65
775.22	-201.99
775.55	-131.67
775.88	-205.73
776.21	-103.99
776.54	-83.04
776.87	-127.18
777.20	-119.70
777.53	-95.01
777.85	-63.59
778.18	-116.71
778.51	-175.06
778.84	-184.78
779.17	-86.78
779.50	-187.78
779.83	-109.23
780.16	-60.60
780.49	-84.54
780.82	-79.30
781.15	-188.53
781.48	-165.33
781.81	-66.58
782.13	-71.82
782.46	-142.89
782.79	-103.24
783.12	-74.81
783.45	-123.44
783.78	-76.31
784.11	-112.22
784.43	-114.46
784.76	-92.77
785.09	-175.06
785.42	-101.74
785.75	-148.13
786.08	-95.01
786.40	-165.33
786.73	-103.24
787.06	223.69
787.39	-130.92
787.72	-95.76
788.04	-175.81
788.37	-130.17
788.70	-77.80
789.03	-146.63
789.36	-71.82
789.68	-116.71
790.01	-158.60
790.34	-71.07
790.67	-70.32
790.99	-115.21
791.32	-106.98
791.65	-164.59
791.98	-136.91
792.30	-118.95
792.63	-108.48
792.96	-184.78
793.29	-52.37
793.61	-127.18
793.94	-154.11
794.27	-176.56
794.59	-53.12
794.92	-139.90
795.25	-97.26
795.57	-135.41
795.90	-154.86
796.23	-132.42
796.55	-87.53
796.88	-143.64
797.21	-38.90
797.53	-148.13
797.86	-158.60
798.19	-115.21
798.51	-91.27
798.84	-98.75
799.17	-134.66
799.49	-90.52
799.82	-145.88
800.14	-93.51
800.47	-47.88
800.80	-97.26
801.12	-62.84
801.45	-102.49
801.77	-175.06
802.10	-137.65
802.43	-117.45
802.75	-56.86
803.08	-71.82
803.40	-160.10
803.73	-126.43
804.05	-201.99
804.38	-93.51
804.70	-184.04
805.03	-118.20
805.35	-99.50
805.68	-81.54
806.01	-34.41
806.33	-97.26
806.66	-167.58
806.98	-121.19
807.31	-89.77
807.63	-118.20
807.96	-130.92
808.28	-86.78
808.60	-14.21
808.93	-128.68
809.25	-164.59
809.58	-89.77
809.90	-206.48
810.23	-149.62
810.55	-166.83
810.88	-136.16
811.20	-129.42
811.53	-110.72
811.85	-122.69
812.17	-98.00
812.50	-206.48
812.82	-148.88
813.15	-45.64
813.47	-163.84
813.79	-55.36
814.12	-193.01
814.44	-110.72
814.77	-38.90
815.09	-100.25
815.41	-103.24
815.74	-149.62
816.06	-128.68
816.38	-42.64
816.71	-148.13
817.03	-98.75
817.35	-43.39
817.68	-191.52
818.00	-129.42
818.32	-75.56
818.65	-92.77
818.97	-51.62
819.29	-117.45
819.62	-201.99
819.94	-178.80
820.26	-224.43
820.58	-150.37
820.91	-45.64
821.23	-59.10
821.55	-109.97
821.88	-74.81
822.20	-208.72
822.52	-141.39
822.84	-148.88
823.17	-219.20
823.49	-140.65
823.81	-89.77
824.13	-99.50
824.46	-139.90
824.78	-145.13
825.10	-216.21
825.42	-106.98
825.74	-81.54
826.07	-114.46
826.39	-124.94
826.71	-156.36
827.03	-23.94
827.35	-127.93
827.67	-172.07
828.00	-188.53
828.32	-54.61
828.64	-55.36
828.96	-134.66
829.28	-102.49
829.60	-101.00
829.93	-115.21
830.25	-83.04
830.57	-143.64
830.89	-97.26
831.21	-101.00
831.53	-104.74
831.85	-131.67
832.17	-115.96
832.49	-74.06
832.82	-98.75
833.14	-148.88
833.46	-124.19
833.78	-172.07
834.10	-124.94
834.42	-121.94
834.74	-151.12
835.06	-171.32
835.38	-181.79
835.70	-121.94
836.02	-130.17
836.34	-98.75
836.66	-149.62
836.98	-59.10
837.30	-103.24
837.62	-89.03
837.94	-163.09
838.26	-117.45
838.58	-170.57
838.90	-154.86
839.22	-174.31
839.54	-106.23
839.86	-68.83
840.18	-88.28
840.50	-85.29
840.82	-136.16
841.14	-54.61
841.46	-136.91
841.78	-101.00
842.10	-129.42
842.42	-81.54
842.74	-207.23
843.06	-127.18
843.38	-142.89
843.69	-128.68
844.01	-166.83
844.33	-169.82
844.65	-119.70
844.97	-97.26
845.29	-95.01
845.61	-135.41
845.93	-88.28
846.25	-62.84
846.56	-159.35
846.88	-211.72
847.20	-118.95
847.52	-110.72
847.84	-169.07
848.16	-142.14
848.47	-128.68
848.79	-94.26
849.11	-112.22
849.43	-90.52
849.75	-142.14
850.07	-98.75
850.38	-101.74
850.70	-122.69
851.02	-121.94
851.34	-112.22
851.66	-122.69
851.97	-62.09
852.29	-126.43
852.61	-228.92
852.93	-149.62
853.24	-19.45
853.56	-93.51
853.88	-99.50
854.20	-86.78
854.51	-118.20
854.83	-164.59
855.15	-116.71
855.46	-133.91
855.78	-113.71
856.10	-84.54
856.42	-68.08
856.73	-115.96
857.05	-162.34
857.37	-162.34
857.68	-210.97
858.00	-90.52
858.32	-50.12
858.63	-95.01
858.95	-109.97
859.27	-133.16
859.58	-131.67
859.90	-121.94
860.22	-117.45
860.53	-120.45
860.85	-178.80
861.16	-136.16
861.48	10.47
861.80	-109.97
862.11	-133.16
862.43	-107.73
862.74	-93.51
863.06	-147.38
863.38	-77.80
863.69	-119.70
864.01	-136.91
864.32	-175.06
864.64	-195.26
864.95	-109.97
865.27	-101.00
865.59	-109.22
865.90	-124.94
866.22	-67.33
866.53	-142.14
866.85	-50.87
867.16	-131.67
867.48	-95.76
867.79	-91.27
868.11	-139.15
868.42	-135.41
868.74	-96.51
869.05	-162.34
869.37	-152.62
869.68	-148.13
870.00	-160.10
870.31	-73.32
870.63	-41.89
870.94	-145.88
871.25	-99.50
871.57	-83.04
871.88	-136.91
872.20	-151.12
872.51	-138.40
872.83	-98.00
873.14	-129.42
873.45	-85.29
873.77	-205.73
874.08	-65.83
874.40	-157.85
874.71	-120.45
875.02	-176.56
875.34	-83.79
875.65	-155.61
875.96	-152.62
876.28	-101.74
876.59	-46.38
876.91	-75.56
877.22	-131.67
877.53	-143.64
877.85	-179.55
878.16	-77.06
878.47	-116.71
878.79	-86.78
879.10	-92.77
879.41	-151.87
879.72	-130.17
880.04	-195.26
880.35	-115.96
880.66	-148.13
880.98	-206.48
881.29	-157.10
881.60	-89.77
881.91	-137.65
882.23	-151.87
882.54	-147.38
882.85	-175.81
883.16	-106.23
883.48	-151.12
883.79	-111.47
884.10	-148.13
884.41	-160.10
884.73	-78.55
885.04	-87.53
885.35	-196.75
885.66	-181.79
885.97	-110.72
886.29	-155.61
886.60	-80.05
886.91	-62.84
887.22	-121.94
887.53	-181.04
887.84	-184.04
888.16	-82.29
888.47	-145.88
888.78	-137.65
889.09	-120.45
889.40	-127.18
889.71	-151.12
890.02	-110.72
890.34	-165.33
890.65	-139.15
890.96	-169.07
891.27	-145.13
891.58	-95.76
891.89	-101.74
892.20	-148.88
892.51	-191.52
892.82	-183.29
893.13	-193.76
893.44	-41.15
893.75	-169.82
894.07	-193.76
894.38	-123.44
894.69	-90.52
895.00	-57.60
895.31	-82.29
895.62	-119.70
895.93	-80.05
896.24	-95.01
896.55	-183.29
896.86	-175.06
897.17	-155.61
897.48	-160.10
897.79	-164.59
898.10	-159.35
898.41	-89.03
898.72	-115.21
899.03	-136.91
899.34	-136.91
899.65	-98.00
899.95	-124.94
900.26	-134.66
900.57	-149.62
900.88	-63.59
901.19	-151.12
901.50	-143.64
901.81	-92.77
902.12	-90.52
902.43	-40.40
902.74	-60.60
903.05	-104.74
903.36	-104.74
903.66	-154.11
903.97	-137.65
904.28	-71.82
904.59	-163.84
904.90	-143.64
905.21	-107.73
905.52	-140.65
905.82	-288.02
906.13	-118.20
906.44	-104.74
906.75	-157.85
907.06	-95.76
907.37	-121.19
907.67	-133.91
907.98	-91.27
908.29	-59.85
908.60	-184.78
908.91	-141.39
909.21	-131.67
909.52	-106.23
909.83	-126.43
910.14	-137.65
910.44	-112.97
910.75	-155.61
911.06	-106.23
911.37	-146.63
911.67	-36.66
911.98	-157.10
912.29	-30.67
912.60	-117.45
912.90	-157.10
913.21	-20.20
913.52	-79.30
913.82	-127.18
914.13	-82.29
914.44	-79.30
914.75	-187.03
915.05	-119.70
915.36	-142.89
915.67	-135.41
915.97	-183.29
916.28	-111.47
916.59	-68.83
916.89	-137.65
917.20	-183.29
917.50	-239.40
917.81	-160.10
918.12	-98.00
918.42	-28.43
918.73	-124.94
919.04	-158.60
919.34	-188.53
919.65	-59.85
919.95	-182.54
920.26	-102.49
920.56	-200.50
920.87	-110.72
921.18	-56.11
921.48	-150.37
921.79	-102.49
922.09	-160.10
922.40	-135.41
922.70	-134.66
923.01	-105.48
923.31	-86.78
923.62	-88.28
923.92	-132.42
924.23	-23.19
924.53	-119.70
924.84	-103.99
925.14	-129.42
925.45	-150.37
925.75	-187.78
926.06	-115.21
926.36	-50.87
926.67	-117.45
926.97	-90.52
927.28	26.93
927.58	-141.39
927.89	-53.86
928.19	-111.47
928.49	-103.24
928.80	-178.05
929.10	-103.99
929.41	-145.13
929.71	-172.81
930.02	-107.73
930.32	-115.96
930.62	-130.17
930.93	-124.94
931.23	-180.30
931.53	-156.36
931.84	-73.32
932.14	-142.89
932.45	14.21
932.75	-80.80
933.05	-65.83
933.36	-90.52
933.66	-68.83
933.96	-98.00
934.27	-124.19
934.57	-189.27
934.87	-86.78
935.18	-91.27
935.48	-136.16
935.78	-180.30
936.08	-160.85
936.39	16.46
936.69	-121.19
936.99	-160.85
937.30	-137.65
937.60	-55.36
937.90	-172.07
938.20	-92.77
938.51	-100.25
938.81	-65.83
939.11	-181.79
939.41	-133.91
939.72	-74.81
940.02	-184.04
940.32	-149.62
940.62	-53.86
940.92	-38.15
941.23	-149.62
941.53	-258.85
941.83	-175.06
942.13	-145.13
942.43	-193.76
942.73	-175.06
943.04	-95.76
943.34	-113.71
943.64	-148.88
943.94	-168.33
944.24	-135.41
944.54	-142.89
944.84	-162.34
945.15	-119.70
945.45	-184.04
945.75	-124.94
946.05	-132.42
946.35	-98.00
946.65	-122.69
946.95	-25.44
947.25	-139.90
947.55	-114.46
947.85	-92.02
948.15	-92.02
948.45	-116.71
948.76	-105.48
949.06	-83.79
949.36	-98.75
949.66	-193.01
949.96	-92.02
950.26	-95.01
950.56	-121.19
950.86	-130.17
951.16	-200.50
951.46	-165.33
951.76	-147.38
952.06	-74.06
952.36	-135.41
952.66	-128.68
952.96	-165.33
953.26	-124.19
953.56	-147.38
953.86	-168.33
954.16	-193.01
954.45	-118.20
954.75	-101.74
955.05	-157.10
955.35	-130.92
955.65	-115.21
955.95	-167.58
956.25	-141.39
956.55	-161.59
956.85	-140.65
957.15	-92.77
957.45	-142.14
957.74	-145.88
958.04	-136.91
958.34	-90.52
958.64	-127.18
958.94	-116.71
959.24	-66.58
959.54	-136.91
959.83	-162.34
960.13	-121.94
960.43	-98.75
960.73	-94.26
961.03	-146.63
961.33	-196.01
961.62	-116.71
961.92	-145.88
962.22	-160.85
962.52	-195.26
962.82	-162.34
963.11	-96.51
963.41	-136.16
963.71	-127.18
964.01	-115.21
964.30	-197.50
964.60	-103.24
964.90	-199.75
965.20	-142.89
965.49	-46.38
965.79	-123.44
966.09	-130.92
966.39	-71.82
966.68	-89.77
966.98	-157.85
967.28	-160.10
967.57	-146.63
967.87	-115.96
968.17	-128.68
968.46	-155.61
968.76	-81.54
969.06	-68.08
969.35	-74.06
969.65	-97.26
969.95	-59.85
970.24	-106.98
970.54	-140.65
970.84	-142.89
971.13	-77.06
971.43	-122.69
971.72	-8.23
972.02	-72.57
972.32	-81.54
972.61	-163.09
972.91	-157.10
973.20	-118.95
973.50	-148.88
973.79	-166.08
974.09	-134.66
974.39	-201.99
974.68	-123.44
974.98	-56.11
975.27	-159.35
975.57	-71.82
975.86	-139.15
976.16	-157.85
976.45	-165.33
976.75	-204.98
977.04	-150.37
977.34	-166.83
977.63	-186.28
977.93	-156.36
978.22	-168.33
978.52	-103.99
978.81	-166.83
979.11	-151.12
979.40	-148.13
979.70	-142.89
979.99	-52.37
980.28	21.70
980.58	-79.30
980.87	-133.16
981.17	-11.97
981.46	-133.16
981.76	-118.20
982.05	-136.16
982.34	-93.51
982.64	-108.48
982.93	-161.59
983.23	-155.61
983.52	-169.82
983.81	-150.37
984.11	-140.65
984.40	-119.70
984.69	-140.65
984.99	-133.91
985.28	-89.77
985.57	-118.20
985.87	-138.40
986.16	-124.19
986.45	-139.15
986.75	-120.45
987.04	-167.58
987.33	-125.68
987.63	-185.53
987.92	-109.97
988.21	-115.96
988.50	-148.13
988.80	-139.15
989.09	-131.67
989.38	-108.48
989.68	-166.83
989.97	-118.95
990.26	-50.87
990.55	-156.36
990.84	4.49
991.14	-178.80
991.43	-122.69
991.72	-53.12
992.01	-88.28
992.31	-115.21
992.60	-63.59
992.89	-204.24
993.18	-68.08
993.47	-70.32
993.76	-120.45
994.06	-107.73
994.35	-103.24
994.64	-148.13
994.93	-159.35
995.22	-115.96
995.51	-95.01
995.80	-81.54
996.10	2.99
996.39	-121.94
996.68	-9.73
996.97	-103.24
997.26	-127.93
997.55	-104.74
997.84	-83.04
998.13	-117.45
998.42	-137.65
998.71	-136.91
999.00	-112.22
999.30	-127.18
999.59	-112.97
999.88	-143.64
1000.17	-166.08
1000.46	-92.77
1000.75	-133.16
1001.04	-187.03
1001.33	-87.53
1001.62	-109.97
1001.91	-110.72
1002.20	-179.55
1002.49	-101.00
1002.78	-158.60
1003.07	-151.87
1003.36	-134.66
1003.65	-142.89
1003.94	-130.92
1004.23	-133.16
1004.52	-190.02
1004.81	-127.93
1005.09	-150.37
1005.38	-84.54
1005.67	-184.78
1005.96	-127.93
1006.25	-54.61
1006.54	-118.95
1006.83	-77.06
1007.12	-181.04
1007.41	-74.06
1007.70	-59.85
1007.99	-44.14
1008.27	-148.88
1008.56	-157.10
1008.85	-53.86
1009.14	-108.48
1009.43	-110.72
1009.72	-101.00
1010.01	-139.15
1010.29	-154.11
1010.58	-194.51
1010.87	-123.44
1011.16	-144.39
1011.45	-221.44
1011.73	-180.30
1012.02	-83.79
1012.31	-83.79
1012.60	-151.87
1012.89	-88.28
1013.17	-161.59
1013.46	-58.35
1013.75	-124.94
1014.04	-78.55
1014.32	24.69
1014.61	-118.95
1014.90	-181.79
1015.19	-133.91
1015.47	-90.52
1015.76	-159.35
1016.05	-103.24
1016.33	-175.81
1016.62	-94.26
1016.91	-157.85
1017.20	-253.61
1017.48	-78.55
1017.77	-86.03
1018.06	-175.06
1018.34	-175.81
1018.63	-94.26
1018.92	-139.15
1019.20	-80.80
1019.49	-74.81
1019.77	-118.95
1020.06	-92.77
1020.35	-115.21
1020.63	-169.07
1020.92	-187.03
1021.21	-145.88
1021.49	-100.25
1021.78	-187.03
1022.06	-89.03
1022.35	-62.09
1022.63	-68.08
1022.92	-144.39
1023.21	-51.62
1023.49	-144.39
1023.78	-73.32
1024.06	-92.02
1024.35	-126.43
1024.63	-120.45
1024.92	-227.43
1025.20	-113.71
1025.49	-29.18
1025.77	-67.33
1026.06	-143.64
1026.34	-182.54
1026.63	-151.12
1026.91	-64.34
1027.20	-148.88
1027.48	-213.96
1027.77	-104.74
1028.05	-177.30
1028.34	-163.09
1028.62	-138.40
1028.91	-117.45
1029.19	-83.79
1029.47	-97.26
1029.76	-100.25
>>>>>End Processed Spectral Data<<<<<
