SpectraSuite Data File
++++++++++++++++++++++++++++++++++++
Date: Thu May 07 12:24:40 BST 2015
User: lew507
Dark Spectrum Present: Yes
Reference Spectrum Present: No
Number of Sampled Component Spectra: 1
Spectrometers: JAZA1505
Integration Time (usec): 200000 (JAZA1505)
Spectra Averaged: 1 (JAZA1505)
Boxcar Smoothing: 0 (JAZA1505)
Correct for Electrical Dark: No (JAZA1505)
Strobe/Lamp Enabled: No (JAZA1505)
Correct for Detector Non-linearity: No (JAZA1505)
Correct for Stray Light: No (JAZA1505)
Number of Pixels in Processed Spectrum: 2048
>>>>>Begin Processed Spectral Data<<<<<
339.60	-149.62
339.98	-149.62
340.36	-149.62
340.74	-120.45
341.12	-142.89
341.50	-185.53
341.88	-159.35
342.26	-157.10
342.64	-161.59
343.02	-158.60
343.40	-67.33
343.78	-77.80
344.17	-100.25
344.55	-87.53
344.93	-160.85
345.31	-130.17
345.69	-130.17
346.07	-159.35
346.45	-148.88
346.83	-123.44
347.21	-171.32
347.59	-131.67
347.97	-137.65
348.35	-53.12
348.73	-96.51
349.11	-163.09
349.49	-90.52
349.87	-211.72
350.25	-143.64
350.63	-145.13
351.01	-136.91
351.39	-61.35
351.77	-68.83
352.15	-102.49
352.53	-77.80
352.91	-105.48
353.29	-193.01
353.67	-129.42
354.05	-148.13
354.43	-124.19
354.81	-136.16
355.19	-140.65
355.57	-178.05
355.95	-135.41
356.33	-184.78
356.71	-106.23
357.09	-125.68
357.47	-98.75
357.84	-84.54
358.22	-87.53
358.60	-137.65
358.98	-129.42
359.36	-114.46
359.74	-178.80
360.12	-138.40
360.50	-126.43
360.88	-135.41
361.26	-107.73
361.64	-61.35
362.02	-47.88
362.39	-142.14
362.77	-53.12
363.15	-157.85
363.53	-112.97
363.91	-136.16
364.29	-156.36
364.67	-90.52
365.05	-169.07
365.42	-163.84
365.80	-144.39
366.18	-150.37
366.56	-64.34
366.94	-142.14
367.32	2.99
367.70	-34.41
368.07	-103.24
368.45	-100.25
368.83	-129.42
369.21	-138.40
369.59	-132.42
369.97	-97.26
370.34	-63.59
370.72	-151.87
371.10	-140.65
371.48	-157.85
371.86	-125.68
372.23	-183.29
372.61	-99.50
372.99	-139.90
373.37	-73.32
373.75	-164.59
374.12	-141.39
374.50	-200.50
374.88	-104.74
375.26	-87.53
375.64	-139.15
376.01	-143.64
376.39	-142.89
376.77	-141.39
377.15	-119.70
377.52	-122.69
377.90	-167.58
378.28	-129.42
378.66	-118.95
379.03	-130.17
379.41	-111.47
379.79	-90.52
380.17	-140.65
380.54	-161.59
380.92	-99.50
381.30	-112.97
381.67	-180.30
382.05	-154.86
382.43	-160.85
382.81	-171.32
383.18	-125.68
383.56	-127.18
383.94	-129.42
384.31	-45.64
384.69	-223.69
385.07	-118.95
385.44	-133.16
385.82	-70.32
386.20	-184.04
386.57	-107.73
386.95	-99.50
387.33	-142.14
387.70	-163.84
388.08	-192.27
388.46	-172.07
388.83	-123.44
389.21	-139.90
389.59	-154.11
389.96	-74.06
390.34	-90.52
390.72	-104.74
391.09	-127.93
391.47	-135.41
391.84	-141.39
392.22	-157.85
392.60	-120.45
392.97	-134.66
393.35	-135.41
393.73	-74.06
394.10	-161.59
394.48	-41.89
394.85	-207.23
395.23	-136.16
395.61	-122.69
395.98	-149.62
396.36	-82.29
396.73	-110.72
397.11	-159.35
397.48	-164.59
397.86	-134.66
398.24	-162.34
398.61	-144.39
398.99	-127.93
399.36	-80.80
399.74	-112.22
400.11	-86.03
400.49	-121.19
400.86	-106.98
401.24	-122.69
401.61	-146.63
401.99	-27.68
402.36	-93.51
402.74	-136.16
403.11	-119.70
403.49	-114.46
403.86	-131.67
404.24	-86.03
404.61	-89.03
404.99	-169.82
405.36	-127.18
405.74	-199.75
406.11	-90.52
406.49	-106.98
406.86	-179.55
407.24	-131.67
407.61	-68.08
407.99	-112.97
408.36	-90.52
408.74	-68.08
409.11	-142.14
409.49	-90.52
409.86	-119.70
410.24	-194.51
410.61	-88.28
410.98	-103.24
411.36	-113.71
411.73	-77.06
412.11	-53.86
412.48	-83.04
412.86	-101.00
413.23	-131.67
413.60	-106.98
413.98	-32.17
414.35	-66.58
414.73	-132.42
415.10	-97.26
415.47	-99.50
415.85	-99.50
416.22	-130.17
416.60	-89.03
416.97	-93.51
417.34	11.22
417.72	-14.21
418.09	-95.76
418.46	-106.23
418.84	26.93
419.21	-51.62
419.58	-16.46
419.96	-67.33
420.33	-2.24
420.70	-21.70
421.08	69.57
421.45	109.97
421.82	-35.16
422.20	109.97
422.57	125.68
422.94	103.24
423.32	84.54
423.69	130.17
424.06	92.02
424.44	214.71
424.81	220.69
425.18	148.13
425.56	314.21
425.93	266.33
426.30	365.83
426.67	294.76
427.05	338.15
427.42	451.11
427.79	540.14
428.17	484.78
428.54	591.76
428.91	474.31
429.28	580.54
429.66	543.13
430.03	773.55
430.40	866.32
430.77	886.52
431.15	1032.40
431.52	968.06
431.89	1094.49
432.26	1197.73
432.63	1249.35
433.01	1487.26
433.38	1422.92
433.75	1592.74
434.12	1568.80
434.50	1657.83
434.87	1847.10
435.24	1988.49
435.61	2132.13
435.98	2407.44
436.36	2500.95
436.73	2707.43
437.10	2892.22
437.47	2990.97
437.84	3061.29
438.21	3293.96
438.59	3605.17
438.96	3816.14
439.33	3934.34
439.70	4235.09
440.07	4368.25
440.44	4710.14
440.81	5059.51
441.19	5203.15
441.56	5464.99
441.93	5821.09
442.30	6319.34
442.67	6350.01
443.04	7054.74
443.41	7012.84
443.78	7563.46
444.16	7872.43
444.53	8277.91
444.90	8851.71
445.27	9085.13
445.64	9574.39
446.01	10149.70
446.38	10240.97
446.75	10937.46
447.12	11800.79
447.49	12141.18
447.86	12534.69
448.24	13309.74
448.61	13844.64
448.98	14673.56
449.35	15347.61
449.72	15763.56
450.09	16786.24
450.46	17273.26
450.83	17791.71
451.20	19199.66
451.57	19471.23
451.94	20284.43
452.31	21182.92
452.68	22211.58
453.05	22789.87
453.42	23787.11
453.79	24554.68
454.16	25135.96
454.53	26276.09
454.90	27134.93
455.27	28016.21
455.64	29038.14
456.01	29798.97
456.38	30688.48
456.75	31227.13
457.12	32237.09
457.49	32891.69
457.86	33489.43
458.23	34144.78
458.60	35523.56
458.97	35363.46
459.34	36502.10
459.71	36753.46
460.08	37017.55
460.45	37900.33
460.82	37856.94
461.18	38141.97
461.55	39577.60
461.92	39113.77
462.29	38904.30
462.66	38687.35
463.03	39474.36
463.40	39602.29
463.77	39243.94
464.14	38493.58
464.51	38816.02
464.88	38881.86
465.25	37786.61
465.61	37790.35
465.98	37116.30
466.35	36324.05
466.72	35914.83
467.09	35552.74
467.46	34491.16
467.83	34304.88
468.20	33746.78
468.56	32495.19
468.93	31989.46
469.30	31355.06
469.67	30541.11
470.04	30633.12
470.41	29575.29
470.77	28655.10
471.14	27800.01
471.51	27528.44
471.88	26640.43
472.25	26107.77
472.62	25189.83
472.98	24675.87
473.35	24063.17
473.72	23766.91
474.09	23662.92
474.46	22670.92
474.82	21880.16
475.19	21541.26
475.56	21423.06
475.93	20933.79
476.29	21020.58
476.66	20352.51
477.03	19817.60
477.40	18936.32
477.77	18784.46
478.13	18381.97
478.50	18077.49
478.87	17734.85
479.24	17508.92
479.60	17185.73
479.97	16811.67
480.34	16020.17
480.71	15934.88
481.07	15587.01
481.44	15319.18
481.81	14539.64
482.17	14704.98
482.54	14305.48
482.91	13997.26
483.28	13194.53
483.64	13018.72
484.01	12658.88
484.38	12708.25
484.74	12282.58
485.11	11787.32
485.48	11386.33
485.84	11305.54
486.21	10977.86
486.58	10370.39
486.94	10651.68
487.31	9971.64
487.68	9715.79
488.04	9421.78
488.41	9102.33
488.78	8969.17
489.14	8620.55
489.51	8339.25
489.87	8182.90
490.24	7926.29
490.61	7529.79
490.97	7449.00
491.34	7167.70
491.71	7006.11
492.07	6876.69
492.44	6675.44
492.80	6495.90
493.17	6272.96
493.54	6090.42
493.90	5867.48
494.27	5893.66
494.63	5398.41
495.00	5335.57
495.37	5155.27
495.73	5077.47
496.10	4933.83
496.46	4606.15
496.83	4452.04
497.19	4578.47
497.56	4288.95
497.92	4235.09
498.29	3995.69
498.65	3895.44
499.02	3618.64
499.39	3627.62
499.75	3553.55
500.12	3483.23
500.48	3299.94
500.85	3197.45
501.21	3170.52
501.58	3001.44
501.94	2973.01
502.31	2879.50
502.67	2673.77
503.04	2638.61
503.40	2470.28
503.77	2465.04
504.13	2387.24
504.50	2221.91
504.86	2188.99
505.23	2096.22
505.59	2013.18
505.95	2022.91
506.32	1805.20
506.68	1770.04
507.05	1881.51
507.41	1684.01
507.78	1657.08
508.14	1526.91
508.51	1475.29
508.87	1413.94
509.23	1384.02
509.60	1349.60
509.96	1339.13
510.33	1217.93
510.69	1287.51
511.05	1150.60
511.42	1123.67
511.78	1143.87
512.15	1113.20
512.51	974.05
512.87	975.54
513.24	914.95
513.60	882.78
513.97	929.91
514.33	831.16
514.69	843.13
515.06	783.28
515.42	700.24
515.78	692.76
516.15	712.21
516.51	779.54
516.87	550.61
517.24	683.03
517.60	982.28
517.96	558.09
518.33	521.44
518.69	526.67
519.05	588.77
519.42	525.93
519.78	556.60
520.14	477.30
520.51	497.50
520.87	418.20
521.23	424.18
521.59	370.32
521.96	421.94
522.32	399.49
522.68	308.22
523.05	311.22
523.41	255.11
523.77	274.56
524.13	293.26
524.50	163.09
524.86	287.28
525.22	252.86
525.58	378.55
525.95	258.10
526.31	230.42
526.67	204.24
527.03	206.48
527.39	144.39
527.76	167.58
528.12	234.91
528.48	66.58
528.84	121.94
529.20	109.22
529.57	170.57
529.93	160.10
530.29	75.56
530.65	89.03
531.01	180.30
531.38	105.48
531.74	42.64
532.10	52.37
532.46	83.04
532.82	85.29
533.18	-10.47
533.55	69.57
533.91	125.68
534.27	24.69
534.63	1.50
534.99	23.19
535.35	11.97
535.71	18.70
536.08	3.74
536.44	-8.23
536.80	24.69
537.16	30.67
537.52	-5.98
537.88	-33.67
538.24	-29.92
538.60	21.70
538.96	-30.67
539.32	-64.34
539.69	-69.57
540.05	-38.15
540.41	-66.58
540.77	28.43
541.13	4.49
541.49	-85.29
541.85	-6.73
542.21	-11.97
542.57	-6.73
542.93	-170.57
543.29	-38.15
543.65	-37.41
544.01	45.64
544.37	-142.89
544.73	-110.72
545.09	-40.40
545.45	-41.15
545.81	-30.67
546.17	-105.48
546.53	-20.20
546.89	-35.91
547.25	-2.99
547.61	-97.26
547.97	-81.54
548.33	-54.61
548.69	-165.33
549.05	-74.06
549.41	-59.10
549.77	-109.97
550.13	-109.22
550.49	-71.82
550.85	-137.65
551.21	-67.33
551.57	-48.63
551.93	-86.03
552.29	-108.48
552.65	-95.76
553.01	-175.81
553.37	-112.97
553.73	-109.22
554.09	-124.19
554.44	-23.94
554.80	-103.99
555.16	-93.51
555.52	-91.27
555.88	-79.30
556.24	-29.18
556.60	-138.40
556.96	-32.17
557.32	-96.51
557.68	-57.60
558.03	-172.81
558.39	-118.20
558.75	-23.19
559.11	-112.97
559.47	-73.32
559.83	-61.35
560.19	-116.71
560.54	-135.41
560.90	-102.49
561.26	-101.00
561.62	-120.45
561.98	-80.80
562.34	-48.63
562.69	-80.05
563.05	-100.25
563.41	-17.21
563.77	-159.35
564.13	-111.47
564.48	-177.30
564.84	-93.51
565.20	-112.97
565.56	-203.49
565.92	-103.24
566.27	-97.26
566.63	-101.00
566.99	-103.24
567.35	-100.25
567.70	-127.18
568.06	-39.65
568.42	-153.36
568.78	-117.45
569.13	-131.67
569.49	-98.75
569.85	-126.43
570.21	-44.14
570.56	-91.27
570.92	-136.91
571.28	-147.38
571.63	-98.75
571.99	-163.09
572.35	-149.62
572.71	-118.95
573.06	-136.91
573.42	-115.21
573.78	-125.68
574.13	-139.15
574.49	-157.10
574.85	-83.04
575.20	-134.66
575.56	-90.52
575.92	-153.36
576.27	-170.57
576.63	-120.45
576.99	-149.62
577.34	-150.37
577.70	-103.24
578.06	-116.71
578.41	-96.51
578.77	-115.21
579.13	-151.87
579.48	-133.16
579.84	-169.07
580.19	-100.25
580.55	-180.30
580.91	-97.26
581.26	-172.07
581.62	-183.29
581.97	-136.91
582.33	-93.51
582.69	-197.50
583.04	-136.91
583.40	-219.20
583.75	-121.19
584.11	-151.12
584.46	-170.57
584.82	-69.57
585.17	-51.62
585.53	-139.15
585.89	-121.19
586.24	-160.10
586.60	-166.08
586.95	-62.09
587.31	-91.27
587.66	-171.32
588.02	-115.21
588.37	-80.80
588.73	-135.41
589.08	-89.77
589.44	-115.96
589.79	-79.30
590.15	-21.70
590.50	-179.55
590.86	-32.92
591.21	-127.93
591.57	-145.88
591.92	-118.95
592.28	-92.77
592.63	-100.25
592.99	-156.36
593.34	-103.99
593.69	-123.44
594.05	-163.84
594.40	-120.45
594.76	-89.03
595.11	-128.68
595.47	-108.48
595.82	-63.59
596.18	-100.25
596.53	-123.44
596.88	-112.22
597.24	-130.92
597.59	-85.29
597.95	-160.85
598.30	-119.70
598.65	-169.82
599.01	-14.21
599.36	-196.75
599.71	-157.85
600.07	-139.15
600.42	-173.56
600.78	-192.27
601.13	-114.46
601.48	-160.85
601.84	-174.31
602.19	-100.25
602.54	-64.34
602.90	-85.29
603.25	-138.40
603.60	-166.08
603.96	-184.78
604.31	-187.78
604.66	-35.91
605.02	-126.43
605.37	-157.85
605.72	-193.76
606.08	-139.15
606.43	-185.53
606.78	-121.19
607.13	-144.39
607.49	-106.98
607.84	-114.46
608.19	-114.46
608.55	-118.95
608.90	-67.33
609.25	-118.20
609.60	-144.39
609.96	-156.36
610.31	-66.58
610.66	-184.04
611.01	-40.40
611.37	-129.42
611.72	-60.60
612.07	-121.19
612.42	-120.45
612.77	-173.56
613.13	-166.08
613.48	-120.45
613.83	-169.07
614.18	-151.87
614.53	-145.13
614.89	-111.47
615.24	-73.32
615.59	-96.51
615.94	-202.74
616.29	-46.38
616.65	-142.14
617.00	-124.19
617.35	-98.00
617.70	-174.31
618.05	-73.32
618.40	-172.07
618.75	-199.75
619.11	-151.87
619.46	-153.36
619.81	-128.68
620.16	-141.39
620.51	-59.85
620.86	-80.05
621.21	-92.02
621.56	-112.97
621.92	-208.72
622.27	-87.53
622.62	-127.18
622.97	-54.61
623.32	-130.17
623.67	-135.41
624.02	-175.06
624.37	-107.73
624.72	-121.19
625.07	-159.35
625.42	-151.87
625.77	-147.38
626.12	-159.35
626.47	-193.01
626.82	-130.92
627.18	-109.97
627.53	-143.64
627.88	-183.29
628.23	-92.77
628.58	-168.33
628.93	-99.50
629.28	-133.16
629.63	-163.84
629.98	-100.25
630.33	-140.65
630.68	-166.83
631.03	-139.15
631.38	-133.16
631.73	-62.84
632.08	-167.58
632.43	-203.49
632.78	-184.78
633.12	-151.87
633.47	-148.88
633.82	-105.48
634.17	-162.34
634.52	-201.99
634.87	-149.62
635.22	-60.60
635.57	-183.29
635.92	-94.26
636.27	-99.50
636.62	-115.21
636.97	-101.00
637.32	-101.74
637.67	-115.21
638.01	-178.05
638.36	-163.09
638.71	-145.13
639.06	-66.58
639.41	-117.45
639.76	-70.32
640.11	-134.66
640.46	-154.11
640.81	-124.94
641.15	-149.62
641.50	-140.65
641.85	-151.87
642.20	-163.84
642.55	-238.65
642.90	-187.03
643.24	-124.19
643.59	-101.00
643.94	-110.72
644.29	-99.50
644.64	-183.29
644.99	-139.90
645.33	-92.77
645.68	-70.32
646.03	-136.91
646.38	-116.71
646.72	-101.74
647.07	-58.35
647.42	-137.65
647.77	-132.42
648.12	-89.77
648.46	-114.46
648.81	-112.22
649.16	-94.26
649.51	-114.46
649.85	-163.09
650.20	-122.69
650.55	-127.18
650.90	-106.98
651.24	-184.04
651.59	-130.17
651.94	-145.13
652.28	-163.09
652.63	-168.33
652.98	-148.88
653.33	-198.25
653.67	-163.09
654.02	-163.84
654.37	-131.67
654.71	-143.64
655.06	-105.48
655.41	-83.04
655.75	-149.62
656.10	-129.42
656.45	-179.55
656.79	-150.37
657.14	-151.87
657.49	-147.38
657.83	-124.94
658.18	-200.50
658.53	-114.46
658.87	-163.84
659.22	-220.69
659.56	-125.68
659.91	-57.60
660.26	-129.42
660.60	-115.96
660.95	-161.59
661.29	-183.29
661.64	-104.74
661.99	-144.39
662.33	-136.91
662.68	-115.96
663.02	-160.10
663.37	-132.42
663.72	-148.88
664.06	-142.89
664.41	-133.91
664.75	-140.65
665.10	-188.53
665.44	-132.42
665.79	-17.95
666.13	-143.64
666.48	-56.86
666.82	-145.13
667.17	-94.26
667.51	-115.96
667.86	-70.32
668.20	-130.92
668.55	-162.34
668.89	-148.88
669.24	-213.96
669.58	-83.04
669.93	-90.52
670.27	-80.05
670.62	-152.62
670.96	-150.37
671.31	-96.51
671.65	-95.76
672.00	-157.10
672.34	-157.10
672.69	-170.57
673.03	-125.68
673.38	-197.50
673.72	-184.04
674.06	-171.32
674.41	-252.12
674.75	-106.98
675.10	-65.83
675.44	-103.24
675.78	-151.12
676.13	-61.35
676.47	-166.08
676.82	-123.44
677.16	-114.46
677.50	-194.51
677.85	-66.58
678.19	-153.36
678.54	-138.40
678.88	-222.19
679.22	-143.64
679.57	-152.62
679.91	-109.22
680.25	-101.00
680.60	-134.66
680.94	-149.62
681.28	-149.62
681.63	-181.04
681.97	-181.79
682.31	-156.36
682.66	-127.18
683.00	-113.71
683.34	-130.17
683.69	-243.89
684.03	-122.69
684.37	-118.20
684.71	-112.97
685.06	-146.63
685.40	-56.11
685.74	-178.05
686.09	-96.51
686.43	-115.21
686.77	-74.81
687.11	-122.69
687.46	-161.59
687.80	-138.40
688.14	-132.42
688.48	-120.45
688.82	-65.83
689.17	-244.63
689.51	-92.77
689.85	-111.47
690.19	-138.40
690.54	-147.38
690.88	-103.24
691.22	-125.68
691.56	-181.04
691.90	-121.94
692.25	-98.75
692.59	-85.29
692.93	-104.74
693.27	-95.01
693.61	-160.10
693.95	-173.56
694.30	-182.54
694.64	-164.59
694.98	-161.59
695.32	-217.70
695.66	-79.30
696.00	-82.29
696.34	-139.90
696.68	-212.47
697.03	-130.92
697.37	-86.03
697.71	-173.56
698.05	-98.75
698.39	-126.43
698.73	-145.88
699.07	-123.44
699.41	-125.68
699.75	-160.10
700.09	-142.89
700.44	-94.26
700.78	-162.34
701.12	-44.14
701.46	-157.85
701.80	-92.77
702.14	-173.56
702.48	-128.68
702.82	-144.39
703.16	-140.65
703.50	-163.84
703.84	-140.65
704.18	-148.13
704.52	-105.48
704.86	-170.57
705.20	-115.96
705.54	-109.23
705.88	-130.92
706.22	-162.34
706.56	-95.76
706.90	-144.39
707.24	-178.05
707.58	-172.81
707.92	-107.73
708.26	-128.68
708.60	-112.97
708.94	-137.65
709.28	-112.22
709.62	-144.39
709.96	-211.72
710.30	-127.18
710.63	-118.95
710.97	-107.73
711.31	-115.96
711.65	-181.04
711.99	-119.70
712.33	-162.34
712.67	-53.12
713.01	-204.98
713.35	-166.08
713.69	-89.77
714.03	-135.41
714.36	-131.67
714.70	-96.51
715.04	-128.68
715.38	-170.57
715.72	-160.85
716.06	-201.99
716.40	-173.56
716.73	-166.08
717.07	-142.14
717.41	-102.49
717.75	-145.88
718.09	-80.80
718.43	-145.88
718.76	-159.35
719.10	-197.50
719.44	-129.42
719.78	-207.98
720.12	-103.24
720.45	-133.16
720.79	-118.20
721.13	-161.59
721.47	-96.51
721.80	-147.38
722.14	-169.82
722.48	-202.74
722.82	-108.48
723.16	-188.53
723.49	-167.58
723.83	-184.04
724.17	-62.09
724.50	-137.65
724.84	-103.99
725.18	-160.10
725.52	-136.16
725.85	-186.28
726.19	-99.50
726.53	-90.52
726.87	-202.74
727.20	-176.56
727.54	-169.82
727.88	-188.53
728.21	-140.65
728.55	-145.88
728.89	-72.57
729.22	-182.54
729.56	-114.46
729.90	-161.59
730.23	-110.72
730.57	-74.81
730.91	-138.40
731.24	-149.62
731.58	-118.95
731.91	-143.64
732.25	-148.13
732.59	-158.60
732.92	-113.71
733.26	-124.94
733.60	-225.93
733.93	-87.53
734.27	-172.07
734.60	-137.65
734.94	-70.32
735.27	-169.07
735.61	-128.68
735.95	-112.22
736.28	-35.16
736.62	-144.39
736.95	-94.26
737.29	-171.32
737.62	-142.14
737.96	-137.65
738.29	-160.10
738.63	-151.12
738.97	-187.78
739.30	-170.57
739.64	-65.83
739.97	-61.35
740.31	-157.10
740.64	-225.18
740.98	-187.78
741.31	-85.29
741.65	-121.19
741.98	-106.23
742.32	-175.81
742.65	-160.10
742.98	-173.56
743.32	-114.46
743.65	-65.09
743.99	-151.12
744.32	-181.79
744.66	-166.83
744.99	-130.17
745.33	-129.42
745.66	-158.60
745.99	-121.94
746.33	-190.77
746.66	-162.34
747.00	-130.92
747.33	-177.30
747.67	-115.21
748.00	-127.93
748.33	-95.01
748.67	-108.48
749.00	-94.26
749.33	-26.18
749.67	-196.01
750.00	-155.61
750.34	-185.53
750.67	-58.35
751.00	-89.77
751.34	-133.16
751.67	-108.48
752.00	-153.36
752.34	-104.74
752.67	-160.10
753.00	-165.33
753.34	-112.22
753.67	-130.17
754.00	-185.53
754.34	-131.67
754.67	-124.94
755.00	-180.30
755.33	-184.04
755.67	-222.94
756.00	-264.09
756.33	-114.46
756.67	-60.60
757.00	-117.45
757.33	-187.78
757.66	-170.57
758.00	-181.79
758.33	-103.99
758.66	-237.90
758.99	-106.23
759.33	-79.30
759.66	-113.71
759.99	-140.65
760.32	-104.74
760.65	-142.14
760.99	-153.36
761.32	-159.35
761.65	-135.41
761.98	-106.98
762.31	-78.55
762.65	-145.13
762.98	-99.50
763.31	-127.18
763.64	-36.66
763.97	-154.11
764.30	-74.81
764.64	-98.75
764.97	-95.01
765.30	-89.03
765.63	-172.81
765.96	-150.37
766.29	-124.19
766.62	-95.76
766.95	-125.68
767.29	-126.43
767.62	-183.29
767.95	-152.62
768.28	-98.75
768.61	-146.63
768.94	-148.13
769.27	-135.41
769.60	-185.53
769.93	-163.09
770.26	-142.14
770.59	-154.11
770.92	-130.17
771.25	-91.27
771.59	-147.38
771.92	-172.07
772.25	-139.90
772.58	-180.30
772.91	-159.35
773.24	-130.92
773.57	-130.17
773.90	-184.04
774.23	-145.88
774.56	-116.71
774.89	-77.06
775.22	-201.99
775.55	-147.38
775.88	-207.98
776.21	-121.94
776.54	-170.57
776.87	-118.20
777.20	-133.16
777.53	-164.59
777.85	-103.99
778.18	-105.48
778.51	-65.09
778.84	-162.34
779.17	-129.42
779.50	-156.36
779.83	-84.54
780.16	-134.66
780.49	-201.24
780.82	-103.99
781.15	-188.53
781.48	-194.51
781.81	-80.05
782.13	-53.86
782.46	-156.36
782.79	-170.57
783.12	-164.59
783.45	-177.30
783.78	-148.13
784.11	-78.55
784.43	-134.66
784.76	-106.23
785.09	-186.28
785.42	-164.59
785.75	-201.99
786.08	-135.41
786.40	-181.04
786.73	-89.77
787.06	-14.21
787.39	-191.52
787.72	-106.98
788.04	-137.65
788.37	-157.10
788.70	-131.67
789.03	-202.74
789.36	-136.91
789.68	-228.92
790.01	-185.53
790.34	-178.80
790.67	-142.14
790.99	-86.03
791.32	-194.51
791.65	-128.68
791.98	-179.55
792.30	-132.42
792.63	-142.14
792.96	-130.92
793.29	-108.48
793.61	-109.23
793.94	-145.13
794.27	-75.56
794.59	-95.76
794.92	-173.56
795.25	-126.43
795.57	-189.27
795.90	-170.57
796.23	-152.62
796.55	-83.04
796.88	-168.33
797.21	-153.36
797.53	-168.33
797.86	-219.20
798.19	-83.79
798.51	-86.78
798.84	-83.04
799.17	-193.01
799.49	-137.65
799.82	-98.75
800.14	-91.27
800.47	-99.50
800.80	-119.70
801.12	-116.71
801.45	-111.47
801.77	-96.51
802.10	-133.16
802.43	-135.41
802.75	-77.06
803.08	-125.68
803.40	-207.23
803.73	-166.83
804.05	-184.04
804.38	-73.32
804.70	-161.59
805.03	-214.71
805.35	-119.70
805.68	-110.72
806.01	-175.81
806.33	-103.99
806.66	-98.00
806.98	-118.95
807.31	-125.68
807.63	-102.49
807.96	-112.97
808.28	-154.11
808.60	-151.12
808.93	-124.19
809.25	-146.63
809.58	-127.93
809.90	-166.08
810.23	-129.42
810.55	-101.74
810.88	-118.20
811.20	-66.58
811.53	-90.52
811.85	-154.11
812.17	-102.49
812.50	-127.93
812.82	-121.94
813.15	-47.88
813.47	-188.53
813.79	-169.82
814.12	-175.06
814.44	-95.01
814.77	-63.59
815.09	-102.49
815.41	-193.01
815.74	-151.87
816.06	-166.83
816.38	-157.10
816.71	-103.24
817.03	-188.53
817.35	-106.23
817.68	-106.23
818.00	-194.51
818.32	-62.09
818.65	-112.97
818.97	-139.15
819.29	-157.85
819.62	-154.86
819.94	-156.36
820.26	-175.06
820.58	-190.77
820.91	-47.88
821.23	-222.94
821.55	-148.13
821.88	-130.92
822.20	-159.35
822.52	-78.55
822.84	-139.90
823.17	-95.76
823.49	-145.13
823.81	-98.75
824.13	-74.81
824.46	-124.19
824.78	-145.13
825.10	-182.54
825.42	-138.40
825.74	-142.14
826.07	-168.33
826.39	-115.96
826.71	-142.89
827.03	-111.47
827.35	-145.88
827.67	-183.29
828.00	-161.59
828.32	-47.88
828.64	-122.69
828.96	-154.86
829.28	-142.89
829.60	-58.35
829.93	-101.74
830.25	-188.53
830.57	-116.71
830.89	-146.63
831.21	-130.17
831.53	-124.94
831.85	-136.16
832.17	-68.83
832.49	-195.26
832.82	-186.28
833.14	-135.41
833.46	-115.21
833.78	-169.82
834.10	-194.51
834.42	-222.94
834.74	-146.63
835.06	-153.36
835.38	-112.22
835.70	-162.34
836.02	-139.15
836.34	-116.71
836.66	-113.71
836.98	-70.32
837.30	-127.93
837.62	-77.80
837.94	-158.60
838.26	-108.48
838.58	-193.01
838.90	-213.21
839.22	-165.33
839.54	-83.79
839.86	-106.98
840.18	-151.12
840.50	-159.35
840.82	-178.80
841.14	-70.32
841.46	-175.06
841.78	-114.46
842.10	-131.67
842.42	-108.48
842.74	-225.18
843.06	-140.65
843.38	-147.38
843.69	-189.27
844.01	-124.19
844.33	-120.45
844.65	-70.32
844.97	-83.79
845.29	-72.57
845.61	-202.74
845.93	-92.77
846.25	-150.37
846.56	-141.39
846.88	-97.26
847.20	-139.15
847.52	-153.36
847.84	-126.43
848.16	-126.43
848.47	-191.52
848.79	-53.86
849.11	-233.41
849.43	-142.14
849.75	-144.39
850.07	-89.77
850.38	-99.50
850.70	-210.22
851.02	-171.32
851.34	-118.95
851.66	-80.05
851.97	-102.49
852.29	-68.08
852.61	-154.86
852.93	-192.27
853.24	-138.40
853.56	-174.31
853.88	-121.94
854.20	-109.23
854.51	-165.33
854.83	-121.94
855.15	-179.55
855.46	-295.51
855.78	-142.89
856.10	-142.89
856.42	-171.32
856.73	-151.87
857.05	-173.56
857.37	-139.90
857.68	-152.62
858.00	-142.14
858.32	-99.50
858.63	-133.16
858.95	-49.38
859.27	-151.12
859.58	-160.85
859.90	-130.92
860.22	-171.32
860.53	-255.11
860.85	-100.25
861.16	-127.18
861.48	-115.21
861.80	-98.75
862.11	-101.74
862.43	-154.86
862.74	-192.27
863.06	-131.67
863.38	-95.76
863.69	-126.43
864.01	-181.79
864.32	-172.81
864.64	-154.86
864.95	-150.37
865.27	-98.75
865.59	-122.69
865.90	-102.49
866.22	-65.09
866.53	-144.39
866.85	-106.98
867.16	-122.69
867.48	-178.80
867.79	-183.29
868.11	-148.13
868.42	-191.52
868.74	-60.60
869.05	-157.85
869.37	-109.97
869.68	-109.97
870.00	-196.01
870.31	-102.49
870.63	-122.69
870.94	-170.57
871.25	-169.07
871.57	-94.26
871.88	-80.80
872.20	-155.61
872.51	-145.13
872.83	-131.67
873.14	-48.63
873.45	-80.80
873.77	-95.76
874.08	-153.36
874.40	-200.50
874.71	-75.56
875.02	-113.71
875.34	-211.72
875.65	-153.36
875.96	-141.39
876.28	-162.34
876.59	-93.51
876.91	-109.22
877.22	-98.00
877.53	-186.28
877.85	-201.99
878.16	-184.78
878.47	-152.62
878.79	-111.47
879.10	-218.45
879.41	-196.75
879.72	-190.77
880.04	-179.55
880.35	-140.65
880.66	-103.24
880.98	-190.77
881.29	-163.84
881.60	-103.24
881.91	-187.03
882.23	-194.51
882.54	-124.94
882.85	-180.30
883.16	-99.50
883.48	-200.50
883.79	-98.00
884.10	-87.53
884.41	-169.07
884.73	-101.00
885.04	-186.28
885.35	-214.71
885.66	-123.44
885.97	-115.21
886.29	-38.90
886.60	-136.16
886.91	-107.73
887.22	-151.12
887.53	-205.73
887.84	-105.48
888.16	-178.80
888.47	-172.81
888.78	-151.12
889.09	-201.24
889.40	-95.76
889.71	-196.01
890.02	-164.59
890.34	-142.89
890.65	-226.68
890.96	-178.05
891.27	-91.27
891.58	-129.42
891.89	-139.90
892.20	-157.85
892.51	-229.67
892.82	-207.98
893.13	-153.36
893.44	-43.39
893.75	-77.80
894.07	-162.34
894.38	-101.00
894.69	-142.14
895.00	-127.18
895.31	-120.45
895.62	-148.88
895.93	-151.87
896.24	-77.06
896.55	-122.69
896.86	-213.21
897.17	-135.41
897.48	-169.07
897.79	-126.43
898.10	-127.93
898.41	-163.09
898.72	-204.98
899.03	-168.33
899.34	-125.68
899.65	-115.96
899.95	-98.00
900.26	-132.42
900.57	-115.96
900.88	-77.06
901.19	-236.40
901.50	-112.22
901.81	-151.12
902.12	-162.34
902.43	-141.39
902.74	-109.97
903.05	-136.16
903.36	-124.94
903.66	-142.89
903.97	-171.32
904.28	-51.62
904.59	-172.81
904.90	-141.39
905.21	-132.42
905.52	-151.87
905.82	-198.25
906.13	-183.29
906.44	-86.78
906.75	-128.68
907.06	-190.02
907.37	-139.15
907.67	-178.80
907.98	-131.67
908.29	-133.91
908.60	-166.83
908.91	-184.04
909.21	-185.53
909.52	-196.01
909.83	-88.28
910.14	-117.45
910.44	-88.28
910.75	-193.76
911.06	-88.28
911.37	-110.72
911.67	-106.23
911.98	-222.19
912.29	-140.65
912.60	-99.50
912.90	-166.08
913.21	-168.33
913.52	-142.14
913.82	-122.69
914.13	-113.71
914.44	-110.72
914.75	-175.81
915.05	-187.03
915.36	-167.58
915.67	-139.90
915.97	-102.49
916.28	-185.53
916.59	-104.74
916.89	-70.32
917.20	-122.69
917.50	-154.11
917.81	-171.32
918.12	-136.16
918.42	0.75
918.73	-194.51
919.04	-89.03
919.34	-168.33
919.65	-192.27
919.95	-164.59
920.26	-41.89
920.56	-151.12
920.87	-130.92
921.18	-67.33
921.48	-181.79
921.79	-169.82
922.09	-164.59
922.40	-153.36
922.70	-193.01
923.01	-170.57
923.31	-154.11
923.62	-79.30
923.92	-58.35
924.23	-216.21
924.53	-68.08
924.84	-99.50
925.14	-129.42
925.45	-154.86
925.75	-109.23
926.06	-81.54
926.36	-124.94
926.67	-153.36
926.97	-108.48
927.28	-127.93
927.58	-94.26
927.89	-175.06
928.19	-145.13
928.49	-35.91
928.80	-173.56
929.10	-171.32
929.41	-145.13
929.71	-139.15
930.02	-152.62
930.32	-214.71
930.62	-80.80
930.93	-183.29
931.23	-99.50
931.53	-185.53
931.84	-35.16
932.14	-136.16
932.45	-41.89
932.75	-130.17
933.05	-83.79
933.36	-52.37
933.66	-111.47
933.96	-185.53
934.27	-148.88
934.57	-124.19
934.87	-205.73
935.18	-151.87
935.48	-187.78
935.78	-121.94
936.08	-212.47
936.39	-75.56
936.69	-154.86
936.99	-122.69
937.30	-142.14
937.60	-75.56
937.90	-151.87
938.20	-153.36
938.51	-160.85
938.81	-173.56
939.11	-175.06
939.41	-53.12
939.72	-148.88
940.02	-181.79
940.32	-131.67
940.62	-163.84
940.92	-42.64
941.23	-73.32
941.53	-187.03
941.83	-201.99
942.13	-106.98
942.43	-184.78
942.73	-154.86
943.04	-160.85
943.34	-185.53
943.64	-124.19
943.94	-166.08
944.24	-83.79
944.54	-183.29
944.84	-121.94
945.15	-157.85
945.45	-127.93
945.75	-17.21
946.05	-139.15
946.35	-138.40
946.65	-246.13
946.95	-115.21
947.25	-173.56
947.55	-107.73
947.85	-199.75
948.15	-195.26
948.45	-105.48
948.76	-186.28
949.06	-117.45
949.36	-130.17
949.66	-150.37
949.96	-145.88
950.26	-157.85
950.56	-125.68
950.86	-152.62
951.16	-146.63
951.46	-147.38
951.76	-140.65
952.06	-127.93
952.36	-128.68
952.66	-90.52
952.96	-181.04
953.26	-112.97
953.56	-158.60
953.86	-166.08
954.16	-195.26
954.45	-237.15
954.75	-204.98
955.05	-184.04
955.35	-153.36
955.65	-103.99
955.95	-140.65
956.25	-98.75
956.55	-175.06
956.85	-111.47
957.15	-130.92
957.45	-184.78
957.74	-179.55
958.04	-152.62
958.34	-184.78
958.64	-232.66
958.94	-148.13
959.24	-196.75
959.54	-51.62
959.83	-157.85
960.13	-146.63
960.43	-92.02
960.73	-136.91
961.03	-133.16
961.33	-175.81
961.62	-136.91
961.92	-163.84
962.22	-169.82
962.52	-157.10
962.82	-166.83
963.11	-251.37
963.41	-91.27
963.71	-109.22
964.01	-54.61
964.30	-163.84
964.60	-148.13
964.90	-166.08
965.20	-136.16
965.49	-95.76
965.79	-157.10
966.09	-68.08
966.39	-163.84
966.68	-130.17
966.98	-198.25
967.28	-196.01
967.57	-115.21
967.87	-147.38
968.17	-128.68
968.46	-139.90
968.76	-133.16
969.06	-187.03
969.35	-98.75
969.65	-187.03
969.95	-156.36
970.24	-115.96
970.54	-140.65
970.84	-98.00
971.13	-115.21
971.43	-131.67
971.72	-77.80
972.02	-126.43
972.32	-142.14
972.61	-199.00
972.91	-157.10
973.20	-159.35
973.50	-175.81
973.79	-172.81
974.09	-186.28
974.39	-177.30
974.68	-141.39
974.98	-58.35
975.27	-139.15
975.57	-163.84
975.86	-134.66
976.16	-247.63
976.45	-214.71
976.75	-191.52
977.04	-114.46
977.34	-115.21
977.63	-150.37
977.93	-98.00
978.22	-94.26
978.52	-200.50
978.81	-200.50
979.11	-157.85
979.40	-121.19
979.70	-138.40
979.99	-112.97
980.28	12.72
980.58	-95.01
980.87	-99.50
981.17	-119.70
981.46	-144.39
981.76	-131.67
982.05	-102.49
982.34	-93.51
982.64	-166.83
982.93	-177.30
983.23	-142.14
983.52	-127.18
983.81	-71.82
984.11	-115.96
984.40	-180.30
984.69	-207.98
984.99	-131.67
985.28	-76.31
985.57	-124.94
985.87	-100.25
986.16	-148.88
986.45	-195.26
986.75	-142.89
987.04	-109.22
987.33	-114.46
987.63	-149.62
987.92	-15.71
988.21	-149.62
988.50	-175.06
988.80	-161.59
989.09	-100.25
989.38	-135.41
989.68	-97.26
989.97	-166.08
990.26	-187.78
990.55	-196.75
990.84	-74.06
991.14	-145.13
991.43	-156.36
991.72	-86.78
992.01	-54.61
992.31	-157.85
992.60	-180.30
992.89	-161.59
993.18	-103.99
993.47	-160.10
993.76	-147.38
994.06	-107.73
994.35	-228.92
994.64	-145.88
994.93	-148.13
995.22	-71.07
995.51	-133.16
995.80	-130.92
996.10	-73.32
996.39	-151.12
996.68	-61.35
996.97	-78.55
997.26	-136.91
997.55	-109.23
997.84	-76.31
998.13	-166.83
998.42	-162.34
998.71	-166.08
999.00	-161.59
999.30	-194.51
999.59	-79.30
999.88	-101.00
1000.17	-101.00
1000.46	-157.85
1000.75	-135.41
1001.04	-182.54
1001.33	-103.24
1001.62	-114.46
1001.91	-119.70
1002.20	-193.01
1002.49	-163.84
1002.78	-183.29
1003.07	-120.45
1003.36	-130.17
1003.65	-127.18
1003.94	-117.45
1004.23	-196.01
1004.52	-228.18
1004.81	-121.19
1005.09	-150.37
1005.38	-75.56
1005.67	-191.52
1005.96	-237.90
1006.25	-103.99
1006.54	-123.44
1006.83	-29.92
1007.12	-165.33
1007.41	-125.68
1007.70	-127.18
1007.99	-115.96
1008.27	-106.23
1008.56	-170.57
1008.85	-139.15
1009.14	-128.68
1009.43	-65.83
1009.72	-166.08
1010.01	-150.37
1010.29	-124.94
1010.58	-178.80
1010.87	-166.08
1011.16	-43.39
1011.45	-149.62
1011.73	-169.07
1012.02	-99.50
1012.31	-43.39
1012.60	-104.74
1012.89	-162.34
1013.17	-190.77
1013.46	-112.22
1013.75	-145.13
1014.04	-148.13
1014.32	-40.40
1014.61	-76.31
1014.90	-224.43
1015.19	-122.69
1015.47	-117.45
1015.76	-179.55
1016.05	-121.19
1016.33	-198.25
1016.62	-107.73
1016.91	-198.25
1017.20	-175.06
1017.48	-130.17
1017.77	-126.43
1018.06	-224.43
1018.34	-81.54
1018.63	-112.22
1018.92	-33.67
1019.20	-154.86
1019.49	-79.30
1019.77	-177.30
1020.06	-124.19
1020.35	-213.96
1020.63	-187.03
1020.92	-175.81
1021.21	-125.68
1021.49	-154.11
1021.78	-121.94
1022.06	-109.23
1022.35	-138.40
1022.63	-86.03
1022.92	-160.10
1023.21	-101.00
1023.49	-110.72
1023.78	-142.89
1024.06	-179.55
1024.35	-160.10
1024.63	-57.60
1024.92	-139.90
1025.20	-44.14
1025.49	-114.46
1025.77	-145.88
1026.06	-181.79
1026.34	-162.34
1026.63	-148.88
1026.91	-93.51
1027.20	-155.61
1027.48	-178.05
1027.77	-136.16
1028.05	-71.82
1028.34	-124.94
1028.62	-89.03
1028.91	-133.16
1029.19	-200.50
1029.47	-157.85
1029.76	-120.45
>>>>>End Processed Spectral Data<<<<<
