SpectraSuite Data File
++++++++++++++++++++++++++++++++++++
Date: Wed Oct 30 14:50:59 GMT 2013
User: WadeLab
Dark Spectrum Present: Yes
Reference Spectrum Present: No
Number of Sampled Component Spectra: 1
Spectrometers: USB2G15413
Integration Time (usec): 19000 (USB2G15413)
Spectra Averaged: 20 (USB2G15413)
Boxcar Smoothing: 0 (USB2G15413)
Correct for Electrical Dark: No (USB2G15413)
Strobe/Lamp Enabled: No (USB2G15413)
Correct for Detector Non-linearity: No (USB2G15413)
Correct for Stray Light: No (USB2G15413)
Number of Pixels in Processed Spectrum: 2048
>>>>>Begin Processed Spectral Data<<<<<
340.56	-0.0000E00
340.94	-0.0000E00
341.32	-0.0000E00
341.70	-0.0000E00
342.08	-0.0000E00
342.46	-0.0000E00
342.84	-0.0000E00
343.22	-0.0000E00
343.60	-0.0000E00
343.98	-0.0000E00
344.36	-0.0000E00
344.74	-0.0000E00
345.12	-0.0000E00
345.50	-0.0000E00
345.88	-0.0000E00
346.26	-0.0000E00
346.64	-0.0000E00
347.02	-0.0000E00
347.40	-0.0000E00
347.78	-0.0000E00
348.16	-0.0000E00
348.54	-0.0000E00
348.92	-0.0000E00
349.30	-0.0000E00
349.68	-5.2836E-01
350.06	-2.5595E-01
350.43	-2.0683E-01
350.81	-2.5524E-01
351.19	-1.3745E-01
351.57	-1.2272E-01
351.95	-1.6873E-01
352.33	-1.4566E-01
352.71	-1.1239E-01
353.09	-1.5170E-01
353.47	-1.4883E-01
353.84	-1.3761E-01
354.22	-1.4015E-01
354.60	-1.4398E-01
354.98	-1.6333E-01
355.36	-1.5042E-01
355.74	-1.1386E-01
356.12	-1.1070E-01
356.50	-1.1083E-01
356.87	-1.6428E-01
357.25	-1.2189E-01
357.63	-1.4896E-01
358.01	-1.2864E-01
358.39	-1.7531E-01
358.77	-1.4115E-01
359.14	-1.4796E-01
359.52	-1.8530E-01
359.90	-1.3243E-01
360.28	-1.4272E-01
360.66	-1.5560E-01
361.03	-1.3570E-01
361.41	-1.5320E-01
361.79	-1.3129E-01
362.17	-1.4756E-01
362.55	-1.5482E-01
362.92	-1.6501E-01
363.30	-1.5637E-01
363.68	-1.3484E-01
364.06	-1.2893E-01
364.44	-1.6284E-01
364.81	-9.5383E-02
365.19	-1.1944E-01
365.57	-1.0212E-01
365.95	-8.8434E-02
366.32	-1.2122E-01
366.70	-1.1987E-01
367.08	-1.2729E-01
367.46	-9.4520E-02
367.83	-1.3530E-01
368.21	-1.4046E-01
368.59	-9.7651E-02
368.96	-1.0741E-01
369.34	-1.3667E-01
369.72	-1.3185E-01
370.10	-1.5864E-01
370.47	-9.0355E-02
370.85	-1.0950E-01
371.23	-1.0912E-01
371.60	-8.1533E-02
371.98	-1.1953E-01
372.36	-9.3568E-02
372.73	-1.2296E-01
373.11	-1.3652E-01
373.49	-1.0966E-01
373.86	-9.9690E-02
374.24	-9.3065E-02
374.62	-8.1911E-02
374.99	-1.0212E-01
375.37	-9.1682E-02
375.75	-9.1889E-02
376.12	-1.0641E-01
376.50	-7.1383E-02
376.88	-7.9566E-02
377.25	-8.4188E-02
377.63	-9.8007E-02
378.01	-9.8828E-02
378.38	-1.0773E-01
378.76	-1.0113E-01
379.13	-1.0825E-01
379.51	-1.2256E-01
379.89	-1.0918E-01
380.26	-9.4288E-02
380.64	-7.3897E-02
381.01	-7.7252E-02
381.39	-6.4804E-02
381.77	-7.5687E-02
382.14	-1.1582E-01
382.52	-1.1908E-01
382.89	-9.6854E-02
383.27	-8.5729E-02
383.65	-7.0135E-02
384.02	-8.3039E-02
384.40	-9.7278E-02
384.77	-1.1271E-01
385.15	-8.6724E-02
385.52	-6.8138E-02
385.90	-7.2353E-02
386.27	-9.2711E-02
386.65	-7.9690E-02
387.02	-9.1097E-02
387.40	-8.0583E-02
387.78	-8.3966E-02
388.15	-7.7764E-02
388.53	-8.9974E-02
388.90	-1.0728E-01
389.28	-7.4806E-02
389.65	-7.0843E-02
390.03	-9.2979E-02
390.40	-6.9873E-02
390.78	-8.2341E-02
391.15	-8.8212E-02
391.53	-6.6403E-02
391.90	-8.1363E-02
392.28	-5.5494E-02
392.65	-5.6245E-02
393.02	-6.7821E-02
393.40	-6.8728E-02
393.77	-6.9050E-02
394.15	-5.0403E-02
394.52	-5.9144E-02
394.90	-6.7063E-02
395.27	-8.0329E-02
395.65	-8.2620E-02
396.02	-7.0845E-02
396.39	-6.4693E-02
396.77	-8.0027E-02
397.14	-4.4782E-02
397.52	-5.1767E-02
397.89	-7.2535E-02
398.27	-7.6963E-02
398.64	-6.8790E-02
399.01	-6.4986E-02
399.39	-7.1438E-02
399.76	-6.4114E-02
400.14	-6.7280E-02
400.51	-7.8685E-02
400.88	-6.3461E-02
401.26	-5.9595E-02
401.63	-6.0433E-02
402.00	-7.1324E-02
402.38	-7.6349E-02
402.75	-5.8254E-02
403.13	-4.4514E-02
403.50	-5.5624E-02
403.87	-5.1998E-02
404.25	-4.3888E-02
404.62	-5.2656E-02
404.99	-4.6651E-02
405.37	-3.7510E-02
405.74	-4.0159E-02
406.11	-5.8728E-02
406.49	-5.3182E-02
406.86	-5.2984E-02
407.23	-6.0676E-02
407.61	-4.5134E-02
407.98	-5.3541E-02
408.35	-5.9705E-02
408.72	-5.0930E-02
409.10	-5.4401E-02
409.47	-5.9820E-02
409.84	-4.7208E-02
410.22	-5.0423E-02
410.59	-4.7665E-02
410.96	-4.5870E-02
411.33	-4.2175E-02
411.71	-5.1600E-02
412.08	-3.9515E-02
412.45	-5.4572E-02
412.83	-5.5420E-02
413.20	-5.3940E-02
413.57	-5.0719E-02
413.94	-4.0044E-02
414.32	-4.4598E-02
414.69	-5.1024E-02
415.06	-3.6966E-02
415.43	-5.1302E-02
415.80	-3.3123E-02
416.18	-3.3236E-02
416.55	-3.7523E-02
416.92	-3.4857E-02
417.29	-4.5628E-02
417.66	-3.2926E-02
418.04	-3.3500E-02
418.41	-4.1764E-02
418.78	-4.6553E-02
419.15	-2.6904E-02
419.52	-3.2957E-02
419.90	-3.9773E-02
420.27	-3.1497E-02
420.64	-2.4714E-02
421.01	-2.4875E-02
421.38	-1.4861E-02
421.75	-2.4539E-02
422.13	-3.0539E-02
422.50	-1.2798E-02
422.87	-1.7751E-02
423.24	-2.8823E-02
423.61	-1.5742E-02
423.98	-9.2973E-03
424.35	-3.2679E-03
424.73	-8.1260E-03
425.10	-5.4707E-03
425.47	-1.1928E-02
425.84	-2.6048E-03
426.21	5.8034E-03
426.58	1.2653E-02
426.95	1.3258E-02
427.32	4.5841E-04
427.69	1.5483E-02
428.06	2.1631E-02
428.44	2.7435E-02
428.81	3.0586E-02
429.18	4.0756E-02
429.55	3.9553E-02
429.92	3.8597E-02
430.29	2.9643E-02
430.66	3.2514E-02
431.03	4.3152E-02
431.40	5.6982E-02
431.77	6.4852E-02
432.14	7.1435E-02
432.51	7.4815E-02
432.88	8.4631E-02
433.25	9.5877E-02
433.62	1.0559E-01
433.99	1.0887E-01
434.36	1.2354E-01
434.73	1.3469E-01
435.10	1.3721E-01
435.47	1.4655E-01
435.84	1.6572E-01
436.21	1.7356E-01
436.58	1.7933E-01
436.95	1.8422E-01
437.32	2.0013E-01
437.69	2.2017E-01
438.06	2.2119E-01
438.43	2.4144E-01
438.80	2.5318E-01
439.17	2.5479E-01
439.54	2.8174E-01
439.91	2.8746E-01
440.28	3.1435E-01
440.65	3.3521E-01
441.02	3.4248E-01
441.39	3.5498E-01
441.76	3.7214E-01
442.13	4.0905E-01
442.50	4.4609E-01
442.87	4.5248E-01
443.24	4.6602E-01
443.61	5.0238E-01
443.97	5.2540E-01
444.34	5.4581E-01
444.71	5.9462E-01
445.08	6.2486E-01
445.45	6.5594E-01
445.82	6.8508E-01
446.19	7.2364E-01
446.56	7.6199E-01
446.93	7.9209E-01
447.29	8.3763E-01
447.66	8.7594E-01
448.03	9.2445E-01
448.40	9.7528E-01
448.77	1.0219E00
449.14	1.0585E00
449.51	1.1285E00
449.87	1.1859E00
450.24	1.2465E00
450.61	1.3073E00
450.98	1.3609E00
451.35	1.4422E00
451.72	1.5106E00
452.08	1.5655E00
452.45	1.6367E00
452.82	1.6896E00
453.19	1.7782E00
453.56	1.8647E00
453.92	1.9271E00
454.29	1.9900E00
454.66	2.0758E00
455.03	2.1411E00
455.40	2.2155E00
455.76	2.2762E00
456.13	2.3729E00
456.50	2.4462E00
456.87	2.5070E00
457.24	2.5707E00
457.60	2.6375E00
457.97	2.6826E00
458.34	2.7610E00
458.71	2.7797E00
459.07	2.8230E00
459.44	2.8765E00
459.81	2.9054E00
460.17	2.9501E00
460.54	2.9811E00
460.91	2.9854E00
461.28	3.0105E00
461.64	2.9849E00
462.01	2.9815E00
462.38	2.9794E00
462.74	2.9648E00
463.11	2.9940E00
463.48	2.9236E00
463.85	2.9230E00
464.21	2.8902E00
464.58	2.8383E00
464.95	2.8062E00
465.31	2.7556E00
465.68	2.6899E00
466.05	2.6382E00
466.41	2.5847E00
466.78	2.5393E00
467.15	2.4661E00
467.51	2.4082E00
467.88	2.3469E00
468.24	2.2746E00
468.61	2.2030E00
468.98	2.1315E00
469.34	2.0759E00
469.71	2.0076E00
470.08	1.9676E00
470.44	1.9029E00
470.81	1.8272E00
471.17	1.7620E00
471.54	1.6998E00
471.91	1.6572E00
472.27	1.6061E00
472.64	1.5461E00
473.00	1.4958E00
473.37	1.4391E00
473.74	1.4155E00
474.10	1.3400E00
474.47	1.3213E00
474.83	1.2760E00
475.20	1.2417E00
475.56	1.2105E00
475.93	1.1483E00
476.29	1.1053E00
476.66	1.0770E00
477.03	1.0376E00
477.39	1.0203E00
477.76	9.7644E-01
478.12	9.3399E-01
478.49	9.0809E-01
478.85	8.7625E-01
479.22	8.4804E-01
479.58	8.2332E-01
479.95	7.9455E-01
480.31	7.6745E-01
480.68	7.4308E-01
481.04	7.2493E-01
481.41	6.6823E-01
481.77	6.4710E-01
482.14	6.3267E-01
482.50	6.1844E-01
482.87	5.8653E-01
483.23	5.6933E-01
483.59	5.4221E-01
483.96	5.1581E-01
484.32	5.0369E-01
484.69	4.8327E-01
485.05	4.5827E-01
485.42	4.4530E-01
485.78	4.2090E-01
486.15	4.0790E-01
486.51	3.9708E-01
486.87	3.7107E-01
487.24	3.5427E-01
487.60	3.4707E-01
487.97	3.3226E-01
488.33	3.2450E-01
488.70	3.0591E-01
489.06	2.9610E-01
489.42	2.8724E-01
489.79	2.6531E-01
490.15	2.6513E-01
490.51	2.4171E-01
490.88	2.4184E-01
491.24	2.2898E-01
491.61	2.1473E-01
491.97	2.1793E-01
492.33	2.0889E-01
492.70	2.0476E-01
493.06	1.8711E-01
493.42	1.8432E-01
493.79	1.8115E-01
494.15	1.7106E-01
494.51	1.6534E-01
494.88	1.5838E-01
495.24	1.5231E-01
495.60	1.5668E-01
495.97	1.4570E-01
496.33	1.3835E-01
496.69	1.2610E-01
497.06	1.1779E-01
497.42	1.1960E-01
497.78	1.1681E-01
498.14	1.1454E-01
498.51	1.0801E-01
498.87	1.0793E-01
499.23	1.0609E-01
499.60	9.5281E-02
499.96	9.2447E-02
500.32	9.3526E-02
500.68	8.1992E-02
501.05	8.0352E-02
501.41	7.4166E-02
501.77	7.1334E-02
502.13	6.7020E-02
502.50	6.1590E-02
502.86	6.2801E-02
503.22	5.6719E-02
503.58	6.0101E-02
503.95	6.4253E-02
504.31	6.0344E-02
504.67	5.4905E-02
505.03	4.5842E-02
505.39	4.5099E-02
505.76	4.5468E-02
506.12	4.1600E-02
506.48	4.2511E-02
506.84	3.5885E-02
507.20	3.6781E-02
507.57	3.1574E-02
507.93	3.4207E-02
508.29	2.8352E-02
508.65	2.9021E-02
509.01	3.1394E-02
509.37	2.8666E-02
509.74	2.5758E-02
510.10	2.1267E-02
510.46	2.4067E-02
510.82	2.3630E-02
511.18	2.2993E-02
511.54	1.0880E-02
511.90	1.8950E-02
512.27	1.3996E-02
512.63	1.3058E-02
512.99	1.2456E-02
513.35	6.7646E-03
513.71	1.0077E-02
514.07	9.6253E-03
514.43	9.5596E-03
514.79	1.6391E-02
515.15	1.2006E-02
515.52	5.5130E-03
515.88	5.7615E-03
516.24	3.0967E-03
516.60	5.9615E-03
516.96	1.3261E-03
517.32	2.2303E-03
517.68	2.8996E-03
518.04	4.2255E-03
518.40	-1.5653E-03
518.76	-3.3680E-03
519.12	-4.8912E-03
519.48	-6.2945E-03
519.84	-7.1998E-03
520.20	-4.3023E-03
520.56	4.4758E-04
520.92	-4.7670E-03
521.28	2.5028E-03
521.64	1.3778E-03
522.00	4.5377E-04
522.36	-2.9950E-03
522.72	1.1456E-03
523.08	-3.9262E-03
523.44	-1.0190E-02
523.80	-6.6790E-03
524.16	-1.0706E-02
524.52	-4.8906E-03
524.88	-1.5180E-02
525.24	-1.1231E-02
525.60	-1.1981E-02
525.96	-5.4423E-03
526.32	-7.7595E-03
526.68	-6.3539E-03
527.04	-1.2459E-02
527.40	-1.5901E-02
527.76	-1.6397E-02
528.12	-1.6769E-02
528.48	-1.5228E-02
528.84	-1.5677E-02
529.20	-7.3694E-03
529.56	-1.3628E-02
529.91	-1.6575E-02
530.27	-1.2323E-02
530.63	-1.6827E-02
530.99	-1.2290E-02
531.35	-1.4646E-02
531.71	-1.5327E-02
532.07	-1.6778E-02
532.43	-2.1179E-02
532.79	-2.0214E-02
533.15	-1.2706E-02
533.50	-1.4694E-02
533.86	-1.4348E-02
534.22	-1.8238E-02
534.58	-1.5350E-02
534.94	-9.1679E-03
535.30	-1.1358E-02
535.66	-1.6655E-02
536.01	-2.3102E-02
536.37	-2.2505E-02
536.73	-1.0568E-02
537.09	-1.1753E-02
537.45	-1.5597E-02
537.81	-1.3719E-02
538.16	-1.3906E-02
538.52	-1.0847E-02
538.88	-1.3461E-02
539.24	-1.5850E-02
539.60	-1.5910E-02
539.95	-9.9970E-03
540.31	-1.4904E-02
540.67	-1.5360E-02
541.03	-1.0075E-02
541.38	-9.7997E-03
541.74	-1.2276E-02
542.10	-8.1724E-03
542.46	-8.6137E-03
542.82	-8.6927E-03
543.17	-6.9384E-03
543.53	-1.3262E-02
543.89	-1.6564E-02
544.25	-1.1493E-02
544.60	-9.3387E-03
544.96	-1.3634E-02
545.32	-1.2016E-02
545.67	-1.2953E-02
546.03	-7.6845E-03
546.39	-5.5393E-03
546.75	-4.0803E-03
547.10	-6.9858E-03
547.46	-8.4014E-03
547.82	-1.4643E-02
548.17	-8.3987E-03
548.53	-1.5067E-02
548.89	-1.3744E-02
549.24	-1.4206E-02
549.60	-1.1837E-02
549.96	-1.0913E-02
550.31	-1.8301E-02
550.67	-2.1077E-02
551.03	-1.6884E-02
551.38	-1.3207E-02
551.74	-1.6298E-02
552.10	-1.3528E-02
552.45	-2.1173E-02
552.81	-1.4754E-02
553.17	-1.3965E-02
553.52	-9.8779E-03
553.88	-1.4002E-02
554.23	-1.6410E-02
554.59	-9.7328E-03
554.95	-1.2843E-02
555.30	-1.0641E-02
555.66	-1.8542E-02
556.02	-1.8204E-02
556.37	-1.8734E-02
556.73	-2.3901E-02
557.08	-2.1960E-02
557.44	-2.0618E-02
557.79	-2.1063E-02
558.15	-1.8118E-02
558.51	-1.7152E-02
558.86	-1.6476E-02
559.22	-1.4012E-02
559.57	-1.6544E-02
559.93	-1.9630E-02
560.28	-2.0277E-02
560.64	-1.5947E-02
560.99	-1.5645E-02
561.35	-1.9790E-02
561.70	-1.5981E-02
562.06	-2.1989E-02
562.41	-1.6941E-02
562.77	-2.0652E-02
563.13	-1.7697E-02
563.48	-1.8531E-02
563.84	-2.2298E-02
564.19	-2.0073E-02
564.54	-1.9891E-02
564.90	-2.1581E-02
565.25	-2.2906E-02
565.61	-2.0020E-02
565.96	-1.7690E-02
566.32	-1.5450E-02
566.67	-1.9840E-02
567.03	-2.0983E-02
567.38	-2.5065E-02
567.74	-2.3371E-02
568.09	-1.8790E-02
568.45	-2.0739E-02
568.80	-2.8657E-02
569.15	-2.7097E-02
569.51	-2.3487E-02
569.86	-2.4213E-02
570.22	-2.2212E-02
570.57	-2.0889E-02
570.93	-1.6389E-02
571.28	-1.4199E-02
571.63	-1.8416E-02
571.99	-3.0365E-02
572.34	-2.8798E-02
572.70	-1.8909E-02
573.05	-2.0244E-02
573.40	-2.9458E-02
573.76	-2.5369E-02
574.11	-2.7725E-02
574.46	-2.2678E-02
574.82	-3.0426E-02
575.17	-2.3020E-02
575.53	-2.1630E-02
575.88	-2.1664E-02
576.23	-2.4612E-02
576.59	-2.2829E-02
576.94	-1.4888E-02
577.29	-1.1584E-02
577.65	-1.6101E-02
578.00	-1.6647E-02
578.35	-1.5740E-02
578.70	-2.9452E-02
579.06	-2.2729E-02
579.41	-2.1725E-02
579.76	-2.2424E-02
580.12	-1.9204E-02
580.47	-2.5732E-02
580.82	-1.9373E-02
581.18	-1.9598E-02
581.53	-2.0444E-02
581.88	-1.6581E-02
582.23	-2.2395E-02
582.59	-2.5208E-02
582.94	-2.5763E-02
583.29	-2.3378E-02
583.64	-2.5392E-02
584.00	-2.2503E-02
584.35	-2.5598E-02
584.70	-2.4721E-02
585.05	-1.9278E-02
585.41	-3.1059E-02
585.76	-2.7707E-02
586.11	-2.4609E-02
586.46	-2.0600E-02
586.81	-1.8532E-02
587.17	-2.1857E-02
587.52	-3.3138E-02
587.87	-2.9328E-02
588.22	-2.2595E-02
588.57	-1.9922E-02
588.93	-2.1667E-02
589.28	-3.2432E-02
589.63	-2.8980E-02
589.98	-2.5791E-02
590.33	-3.1440E-02
590.68	-2.5886E-02
591.04	-3.3895E-02
591.39	-3.0027E-02
591.74	-2.2275E-02
592.09	-2.7551E-02
592.44	-3.0097E-02
592.79	-3.1966E-02
593.14	-3.6023E-02
593.50	-3.5959E-02
593.85	-3.9596E-02
594.20	-3.4804E-02
594.55	-3.6009E-02
594.90	-4.6899E-02
595.25	-5.0897E-02
595.60	-4.2570E-02
595.95	-4.5544E-02
596.30	-4.2023E-02
596.66	-2.7104E-02
597.01	-3.6256E-02
597.36	-3.0956E-02
597.71	-3.2446E-02
598.06	-4.3414E-02
598.41	-4.4540E-02
598.76	-4.3720E-02
599.11	-4.6392E-02
599.46	-4.4513E-02
599.81	-3.7003E-02
600.16	-4.1518E-02
600.51	-4.5869E-02
600.86	-4.3141E-02
601.21	-4.5377E-02
601.56	-4.6739E-02
601.91	-4.4975E-02
602.26	-4.0847E-02
602.61	-4.9000E-02
602.96	-5.3015E-02
603.31	-4.5105E-02
603.66	-4.5838E-02
604.01	-4.4500E-02
604.36	-4.4298E-02
604.71	-5.8884E-02
605.06	-5.3979E-02
605.41	-5.3516E-02
605.76	-5.4544E-02
606.11	-5.7424E-02
606.46	-6.3128E-02
606.81	-6.0572E-02
607.16	-5.3673E-02
607.51	-4.9145E-02
607.86	-5.9942E-02
608.21	-6.1412E-02
608.56	-5.8428E-02
608.91	-5.8735E-02
609.26	-6.1788E-02
609.61	-6.3320E-02
609.95	-7.0313E-02
610.30	-9.3722E-02
610.65	-1.1577E-01
611.00	-1.5393E-01
611.35	-1.9945E-01
611.70	-2.1374E-01
612.05	-2.0359E-01
612.40	-1.8297E-01
612.75	-1.6213E-01
613.09	-1.4836E-01
613.44	-1.3433E-01
613.79	-1.2674E-01
614.14	-1.0691E-01
614.49	-1.0540E-01
614.84	-1.1555E-01
615.19	-1.0553E-01
615.53	-1.0015E-01
615.88	-8.8914E-02
616.23	-8.7302E-02
616.58	-8.5923E-02
616.93	-8.7150E-02
617.28	-8.2735E-02
617.62	-7.7765E-02
617.97	-7.4623E-02
618.32	-7.5262E-02
618.67	-7.3528E-02
619.02	-8.3207E-02
619.36	-8.8187E-02
619.71	-7.9540E-02
620.06	-7.9591E-02
620.41	-7.9144E-02
620.76	-7.8330E-02
621.10	-7.9558E-02
621.45	-7.7528E-02
621.80	-7.3108E-02
622.15	-8.1256E-02
622.49	-8.4806E-02
622.84	-8.7820E-02
623.19	-8.0380E-02
623.54	-7.7674E-02
623.88	-7.8938E-02
624.23	-8.5367E-02
624.58	-8.0588E-02
624.92	-7.4987E-02
625.27	-7.9547E-02
625.62	-7.7837E-02
625.97	-8.0921E-02
626.31	-8.6641E-02
626.66	-8.2601E-02
627.01	-8.2553E-02
627.35	-9.7988E-02
627.70	-8.7479E-02
628.05	-8.8161E-02
628.39	-8.3029E-02
628.74	-7.4046E-02
629.09	-8.4604E-02
629.43	-8.8288E-02
629.78	-8.9794E-02
630.13	-1.0277E-01
630.47	-9.9953E-02
630.82	-1.0661E-01
631.17	-1.1494E-01
631.51	-1.0936E-01
631.86	-1.0142E-01
632.20	-9.2409E-02
632.55	-1.0079E-01
632.90	-9.6408E-02
633.24	-8.8495E-02
633.59	-7.7670E-02
633.94	-8.1644E-02
634.28	-7.1347E-02
634.63	-6.2449E-02
634.97	-6.6031E-02
635.32	-7.2592E-02
635.66	-7.3519E-02
636.01	-7.4141E-02
636.36	-8.0541E-02
636.70	-7.5693E-02
637.05	-8.4522E-02
637.39	-8.3437E-02
637.74	-8.3399E-02
638.08	-7.7449E-02
638.43	-7.3439E-02
638.77	-7.4468E-02
639.12	-8.1611E-02
639.46	-7.8502E-02
639.81	-7.8838E-02
640.15	-7.3997E-02
640.50	-6.9768E-02
640.85	-7.3852E-02
641.19	-7.8633E-02
641.54	-7.4262E-02
641.88	-6.8962E-02
642.22	-8.0325E-02
642.57	-8.1257E-02
642.91	-8.4391E-02
643.26	-8.2751E-02
643.60	-8.1809E-02
643.95	-8.6609E-02
644.29	-8.3236E-02
644.64	-7.8471E-02
644.98	-7.8678E-02
645.33	-8.3269E-02
645.67	-8.5010E-02
646.02	-7.8431E-02
646.36	-8.0933E-02
646.70	-7.7047E-02
647.05	-8.1190E-02
647.39	-8.8488E-02
647.74	-8.4183E-02
648.08	-8.1498E-02
648.42	-7.7611E-02
648.77	-7.9998E-02
649.11	-8.0259E-02
649.46	-8.9306E-02
649.80	-9.1710E-02
650.14	-8.8238E-02
650.49	-8.9625E-02
650.83	-9.2309E-02
651.18	-9.5851E-02
651.52	-8.4422E-02
651.86	-9.1366E-02
652.21	-9.0858E-02
652.55	-9.2436E-02
652.89	-8.1615E-02
653.24	-7.8529E-02
653.58	-8.1678E-02
653.92	-7.2186E-02
654.27	-7.7225E-02
654.61	-8.8827E-02
654.95	-8.9674E-02
655.30	-7.8583E-02
655.64	-7.5808E-02
655.98	-7.8528E-02
656.33	-8.0629E-02
656.67	-8.0585E-02
657.01	-7.4900E-02
657.35	-8.0847E-02
657.70	-6.3503E-02
658.04	-7.9592E-02
658.38	-8.4331E-02
658.73	-7.7751E-02
659.07	-8.2917E-02
659.41	-8.6223E-02
659.75	-9.2198E-02
660.10	-9.7116E-02
660.44	-8.5934E-02
660.78	-8.9943E-02
661.12	-8.4757E-02
661.46	-8.3506E-02
661.81	-8.7405E-02
662.15	-9.8622E-02
662.49	-9.9201E-02
662.83	-1.0460E-01
663.18	-1.0151E-01
663.52	-1.0660E-01
663.86	-8.9074E-02
664.20	-9.1455E-02
664.54	-8.8940E-02
664.88	-8.6356E-02
665.23	-9.1593E-02
665.57	-9.1471E-02
665.91	-9.2610E-02
666.25	-8.5005E-02
666.59	-8.8876E-02
666.93	-8.9650E-02
667.28	-8.5347E-02
667.62	-8.4619E-02
667.96	-8.8741E-02
668.30	-9.0412E-02
668.64	-9.4052E-02
668.98	-9.9870E-02
669.32	-1.0176E-01
669.67	-9.3324E-02
670.01	-9.8410E-02
670.35	-1.0241E-01
670.69	-9.7844E-02
671.03	-9.3396E-02
671.37	-9.5426E-02
671.71	-8.7252E-02
672.05	-8.6674E-02
672.39	-9.0150E-02
672.73	-8.7022E-02
673.07	-8.6798E-02
673.42	-8.5968E-02
673.76	-8.8596E-02
674.10	-9.7161E-02
674.44	-9.6928E-02
674.78	-9.7476E-02
675.12	-1.0175E-01
675.46	-1.0264E-01
675.80	-1.0319E-01
676.14	-9.0002E-02
676.48	-1.0162E-01
676.82	-1.0794E-01
677.16	-9.6656E-02
677.50	-9.4695E-02
677.84	-9.2555E-02
678.18	-8.4251E-02
678.52	-8.0635E-02
678.86	-9.0619E-02
679.20	-8.6500E-02
679.54	-9.4102E-02
679.88	-9.5993E-02
680.22	-9.0222E-02
680.56	-8.0626E-02
680.90	-8.7702E-02
681.24	-8.6487E-02
681.58	-8.0869E-02
681.92	-8.6344E-02
682.26	-8.1094E-02
682.60	-8.3507E-02
682.93	-8.9687E-02
683.27	-8.9160E-02
683.61	-9.3553E-02
683.95	-1.0360E-01
684.29	-1.0672E-01
684.63	-1.1439E-01
684.97	-1.0213E-01
685.31	-9.5613E-02
685.65	-9.1382E-02
685.99	-9.7959E-02
686.33	-9.7462E-02
686.66	-8.4576E-02
687.00	-8.7361E-02
687.34	-9.0295E-02
687.68	-9.6338E-02
688.02	-8.8175E-02
688.36	-9.7503E-02
688.70	-1.0637E-01
689.03	-1.0262E-01
689.37	-1.0569E-01
689.71	-9.0865E-02
690.05	-1.0080E-01
690.39	-9.1935E-02
690.73	-9.3344E-02
691.06	-1.0410E-01
691.40	-8.4575E-02
691.74	-9.7516E-02
692.08	-9.7804E-02
692.42	-9.3952E-02
692.75	-8.2343E-02
693.09	-1.0296E-01
693.43	-1.0276E-01
693.77	-9.6944E-02
694.11	-1.0208E-01
694.44	-9.7243E-02
694.78	-1.0145E-01
695.12	-1.0221E-01
695.46	-9.5340E-02
695.79	-1.0009E-01
696.13	-1.0200E-01
696.47	-9.9478E-02
696.81	-1.0580E-01
697.14	-9.6474E-02
697.48	-1.0479E-01
697.82	-9.4602E-02
698.16	-1.0125E-01
698.49	-9.6624E-02
698.83	-1.0976E-01
699.17	-1.0943E-01
699.50	-1.0078E-01
699.84	-9.0195E-02
700.18	-8.8892E-02
700.51	-9.5677E-02
700.85	-8.1994E-02
701.19	-1.0015E-01
701.52	-1.0884E-01
701.86	-1.0660E-01
702.20	-1.0758E-01
702.53	-1.0592E-01
702.87	-1.1437E-01
703.21	-1.0916E-01
703.54	-1.1946E-01
703.88	-1.2334E-01
704.22	-1.1658E-01
704.55	-1.1182E-01
704.89	-1.1066E-01
705.23	-1.1987E-01
705.56	-1.1106E-01
705.90	-1.2731E-01
706.23	-1.3887E-01
706.57	-1.1570E-01
706.91	-1.3359E-01
707.24	-1.5617E-01
707.58	-1.4117E-01
707.91	-1.3540E-01
708.25	-1.3932E-01
708.58	-1.4193E-01
708.92	-1.7020E-01
709.26	-1.4962E-01
709.59	-1.3724E-01
709.93	-1.4253E-01
710.26	-1.5397E-01
710.60	-1.4014E-01
710.93	-1.3437E-01
711.27	-1.4300E-01
711.60	-1.4142E-01
711.94	-1.5541E-01
712.27	-1.6069E-01
712.61	-1.6864E-01
712.95	-1.5970E-01
713.28	-1.4475E-01
713.62	-1.4808E-01
713.95	-1.4013E-01
714.28	-1.5195E-01
714.62	-1.3210E-01
714.95	-1.3387E-01
715.29	-1.2188E-01
715.62	-1.3116E-01
715.96	-1.2743E-01
716.29	-1.2862E-01
716.63	-1.1127E-01
716.96	-9.8422E-02
717.30	-9.3375E-02
717.63	-9.4794E-02
717.97	-1.0067E-01
718.30	-1.0685E-01
718.63	-9.6521E-02
718.97	-1.0227E-01
719.30	-1.1242E-01
719.64	-1.1575E-01
719.97	-1.0396E-01
720.31	-1.0429E-01
720.64	-1.0587E-01
720.97	-1.1041E-01
721.31	-1.0793E-01
721.64	-1.1785E-01
721.97	-9.9041E-02
722.31	-1.2152E-01
722.64	-1.1366E-01
722.98	-1.0107E-01
723.31	-1.0176E-01
723.64	-1.1186E-01
723.98	-1.1879E-01
724.31	-1.2895E-01
724.64	-1.2378E-01
724.98	-9.8779E-02
725.31	-1.0270E-01
725.64	-9.4832E-02
725.98	-1.1598E-01
726.31	-1.0833E-01
726.64	-1.1129E-01
726.98	-1.2933E-01
727.31	-1.0494E-01
727.64	-9.9323E-02
727.97	-1.0584E-01
728.31	-1.0956E-01
728.64	-9.5450E-02
728.97	-1.1425E-01
729.31	-1.0347E-01
729.64	-1.1632E-01
729.97	-1.3152E-01
730.30	-1.2203E-01
730.64	-1.3119E-01
730.97	-9.5492E-02
731.30	-1.2165E-01
731.63	-1.2448E-01
731.97	-1.4304E-01
732.30	-1.4154E-01
732.63	-1.2982E-01
732.96	-1.4024E-01
733.29	-1.2753E-01
733.63	-9.5192E-02
733.96	-1.0630E-01
734.29	-1.2265E-01
734.62	-1.4752E-01
734.96	-1.4689E-01
735.29	-1.3387E-01
735.62	-1.1812E-01
735.95	-1.1660E-01
736.28	-1.1931E-01
736.61	-1.3034E-01
736.95	-1.3948E-01
737.28	-1.4248E-01
737.61	-1.3495E-01
737.94	-1.3357E-01
738.27	-1.3088E-01
738.60	-1.2119E-01
738.93	-1.3009E-01
739.27	-1.1084E-01
739.60	-1.3549E-01
739.93	-1.2794E-01
740.26	-1.5193E-01
740.59	-1.4216E-01
740.92	-1.4962E-01
741.25	-1.4250E-01
741.58	-1.3822E-01
741.91	-1.5381E-01
742.24	-1.5603E-01
742.58	-1.3522E-01
742.91	-1.1933E-01
743.24	-1.3551E-01
743.57	-1.4767E-01
743.90	-1.3347E-01
744.23	-1.3809E-01
744.56	-1.4616E-01
744.89	-1.4527E-01
745.22	-1.2864E-01
745.55	-1.1497E-01
745.88	-1.5021E-01
746.21	-1.3558E-01
746.54	-1.3963E-01
746.87	-1.4896E-01
747.20	-1.7110E-01
747.53	-1.4916E-01
747.86	-1.4609E-01
748.19	-1.3623E-01
748.52	-1.3757E-01
748.85	-1.4438E-01
749.18	-1.4629E-01
749.51	-1.3743E-01
749.84	-1.7019E-01
750.17	-1.6650E-01
750.50	-1.7870E-01
750.83	-1.3503E-01
751.16	-1.4435E-01
751.49	-1.6915E-01
751.82	-1.4829E-01
752.15	-1.5947E-01
752.48	-1.4174E-01
752.81	-1.3272E-01
753.14	-1.5085E-01
753.46	-1.4740E-01
753.79	-1.6080E-01
754.12	-1.3716E-01
754.45	-1.5270E-01
754.78	-1.4776E-01
755.11	-1.3543E-01
755.44	-1.5951E-01
755.77	-1.2277E-01
756.10	-1.5222E-01
756.42	-1.6486E-01
756.75	-1.8689E-01
757.08	-1.8477E-01
757.41	-1.6520E-01
757.74	-1.3623E-01
758.07	-1.2506E-01
758.40	-1.5038E-01
758.72	-1.5301E-01
759.05	-1.5136E-01
759.38	-1.3575E-01
759.71	-1.2848E-01
760.04	-1.2238E-01
760.37	-1.1465E-01
760.69	-1.1442E-01
761.02	-9.7373E-02
761.35	-1.0538E-01
761.68	-1.1677E-01
762.01	-1.0956E-01
762.33	-1.2261E-01
762.66	-1.1250E-01
762.99	-1.2010E-01
763.32	-1.2195E-01
763.64	-1.2506E-01
763.97	-1.1081E-01
764.30	-1.0675E-01
764.63	-1.3740E-01
764.95	-1.1612E-01
765.28	-1.4086E-01
765.61	-1.3080E-01
765.94	-1.1974E-01
766.26	-1.1970E-01
766.59	-1.3073E-01
766.92	-1.4931E-01
767.25	-1.6075E-01
767.57	-1.5084E-01
767.90	-1.6544E-01
768.23	-1.5774E-01
768.55	-1.4265E-01
768.88	-1.4932E-01
769.21	-1.4613E-01
769.53	-1.7559E-01
769.86	-1.7610E-01
770.19	-1.6258E-01
770.51	-1.7773E-01
770.84	-1.6803E-01
771.17	-1.6026E-01
771.49	-1.3925E-01
771.82	-1.8219E-01
772.15	-2.0427E-01
772.47	-1.7816E-01
772.80	-2.0214E-01
773.13	-1.7745E-01
773.45	-2.1579E-01
773.78	-1.9007E-01
774.10	-1.6468E-01
774.43	-1.5392E-01
774.76	-1.8410E-01
775.08	-2.0669E-01
775.41	-2.1637E-01
775.73	-2.0186E-01
776.06	-2.2672E-01
776.38	-2.2068E-01
776.71	-2.1747E-01
777.04	-1.8496E-01
777.36	-1.9653E-01
777.69	-2.0044E-01
778.01	-1.7367E-01
778.34	-1.9337E-01
778.66	-1.7016E-01
778.99	-1.6483E-01
779.31	-1.7655E-01
779.64	-1.9670E-01
779.96	-1.8996E-01
780.29	-1.9132E-01
780.61	-1.9180E-01
780.94	-1.9827E-01
781.26	-1.8727E-01
781.59	-1.9362E-01
781.91	-2.1599E-01
782.24	-2.0904E-01
782.56	-1.6459E-01
782.89	-1.8198E-01
783.21	-1.9517E-01
783.54	-2.0466E-01
783.86	-2.1302E-01
784.19	-2.1915E-01
784.51	-1.8742E-01
784.84	-2.0226E-01
785.16	-2.0130E-01
785.48	-2.1207E-01
785.81	-1.9184E-01
786.13	-1.8182E-01
786.46	-2.0519E-01
786.78	-1.8456E-01
787.11	-1.8505E-01
787.43	-1.6923E-01
787.75	-2.0904E-01
788.08	-2.4280E-01
788.40	-1.9557E-01
788.73	-1.7738E-01
789.05	-2.0441E-01
789.37	-2.2917E-01
789.70	-1.9762E-01
790.02	-2.0116E-01
790.34	-1.9842E-01
790.67	-1.7553E-01
790.99	-1.9631E-01
791.31	-1.5835E-01
791.64	-1.9217E-01
791.96	-1.8657E-01
792.28	-2.0596E-01
792.61	-1.7707E-01
792.93	-1.7552E-01
793.25	-2.0902E-01
793.58	-1.8184E-01
793.90	-1.7906E-01
794.22	-1.6989E-01
794.55	-2.1633E-01
794.87	-2.0167E-01
795.19	-2.1384E-01
795.51	-1.8110E-01
795.84	-1.7543E-01
796.16	-1.6760E-01
796.48	-2.0131E-01
796.80	-1.8872E-01
797.13	-2.0345E-01
797.45	-1.9070E-01
797.77	-1.7240E-01
798.09	-1.8044E-01
798.42	-1.7727E-01
798.74	-2.1852E-01
799.06	-2.1232E-01
799.38	-2.1714E-01
799.71	-2.0606E-01
800.03	-2.0152E-01
800.35	-1.7550E-01
800.67	-1.9258E-01
800.99	-1.9007E-01
801.32	-1.9181E-01
801.64	-1.7804E-01
801.96	-1.7388E-01
802.28	-1.6760E-01
802.60	-2.1963E-01
802.92	-2.0656E-01
803.25	-1.9834E-01
803.57	-2.3019E-01
803.89	-2.2738E-01
804.21	-2.3484E-01
804.53	-2.1733E-01
804.85	-2.2845E-01
805.17	-2.4485E-01
805.50	-2.3760E-01
805.82	-2.1713E-01
806.14	-1.7732E-01
806.46	-2.1307E-01
806.78	-1.9526E-01
807.10	-1.7341E-01
807.42	-1.8012E-01
807.74	-1.7554E-01
808.06	-1.9827E-01
808.38	-2.2465E-01
808.70	-2.2882E-01
809.03	-1.9883E-01
809.35	-1.8514E-01
809.67	-1.6897E-01
809.99	-1.8002E-01
810.31	-2.4079E-01
810.63	-2.0534E-01
810.95	-1.8983E-01
811.27	-1.6223E-01
811.59	-1.8583E-01
811.91	-1.9871E-01
812.23	-2.3358E-01
812.55	-1.9808E-01
812.87	-1.9800E-01
813.19	-2.5547E-01
813.51	-2.0499E-01
813.83	-1.6689E-01
814.15	-1.6673E-01
814.47	-2.0744E-01
814.79	-2.0683E-01
815.11	-2.0267E-01
815.43	-2.5222E-01
815.75	-2.0144E-01
816.07	-1.8097E-01
816.39	-2.1795E-01
816.71	-1.9283E-01
817.03	-2.3216E-01
817.34	-2.5737E-01
817.66	-2.2199E-01
817.98	-1.7916E-01
818.30	-2.0118E-01
818.62	-1.9614E-01
818.94	-1.9352E-01
819.26	-1.7964E-01
819.58	-2.0678E-01
819.90	-2.2638E-01
820.22	-2.7659E-01
820.54	-2.5314E-01
820.85	-2.3503E-01
821.17	-2.0047E-01
821.49	-1.7110E-01
821.81	-1.8793E-01
822.13	-1.5904E-01
822.45	-1.9096E-01
822.77	-2.0246E-01
823.08	-1.7760E-01
823.40	-2.4203E-01
823.72	-2.1086E-01
824.04	-2.2400E-01
824.36	-2.1309E-01
824.68	-2.1210E-01
824.99	-2.6060E-01
825.31	-2.1338E-01
825.63	-2.1311E-01
825.95	-2.3670E-01
826.27	-2.3410E-01
826.58	-2.1932E-01
826.90	-2.8070E-01
827.22	-2.3205E-01
827.54	-2.0518E-01
827.85	-1.8145E-01
828.17	-2.7723E-01
828.49	-2.7385E-01
828.81	-2.5302E-01
829.12	-2.3410E-01
829.44	-2.5152E-01
829.76	-2.3025E-01
830.08	-1.9836E-01
830.39	-2.7027E-01
830.71	-2.3076E-01
831.03	-2.7723E-01
831.35	-2.5541E-01
831.66	-2.1549E-01
831.98	-2.1692E-01
832.30	-2.7608E-01
832.61	-2.1457E-01
832.93	-1.9472E-01
833.25	-2.3944E-01
833.56	-2.9347E-01
833.88	-2.6057E-01
834.20	-2.8073E-01
834.51	-2.1701E-01
834.83	-2.2152E-01
835.15	-2.4676E-01
835.46	-2.2454E-01
835.78	-2.5046E-01
836.10	-2.1536E-01
836.41	-1.9754E-01
836.73	-1.9702E-01
837.04	-2.3975E-01
837.36	-2.0289E-01
837.68	-2.2505E-01
837.99	-2.1262E-01
838.31	-2.5268E-01
838.62	-2.3621E-01
838.94	-2.2737E-01
839.26	-2.4178E-01
839.57	-2.1900E-01
839.89	-2.4481E-01
840.20	-2.1840E-01
840.52	-2.0497E-01
840.83	-2.2800E-01
841.15	-2.7906E-01
841.47	-2.0520E-01
841.78	-2.3976E-01
842.10	-2.6958E-01
842.41	-2.4270E-01
842.73	-2.0824E-01
843.04	-2.7599E-01
843.36	-3.3517E-01
843.67	-2.5129E-01
843.99	-2.7351E-01
844.30	-2.7355E-01
844.62	-2.9851E-01
844.93	-2.2153E-01
845.25	-2.6469E-01
845.56	-2.5957E-01
845.88	-2.8043E-01
846.19	-2.4119E-01
846.51	-2.5957E-01
846.82	-2.6109E-01
847.14	-3.4209E-01
847.45	-2.7656E-01
847.76	-2.3781E-01
848.08	-2.4559E-01
848.39	-2.9048E-01
848.71	-2.7073E-01
849.02	-2.5982E-01
849.34	-2.9232E-01
849.65	-2.5219E-01
849.96	-2.4269E-01
850.28	-2.3412E-01
850.59	-2.8536E-01
850.91	-2.9519E-01
851.22	-2.5642E-01
851.53	-2.6461E-01
851.85	-2.6890E-01
852.16	-2.3968E-01
852.47	-2.7913E-01
852.79	-2.7728E-01
853.10	-2.6375E-01
853.41	-2.7340E-01
853.73	-2.3984E-01
854.04	-2.0987E-01
854.36	-2.0496E-01
854.67	-2.4649E-01
854.98	-2.8656E-01
855.29	-2.7214E-01
855.61	-2.5075E-01
855.92	-2.4365E-01
856.23	-2.7473E-01
856.55	-2.6155E-01
856.86	-2.3068E-01
857.17	-2.4614E-01
857.49	-2.3469E-01
857.80	-3.0286E-01
858.11	-3.5635E-01
858.42	-2.9260E-01
858.74	-2.9607E-01
859.05	-4.0708E-01
859.36	-4.0602E-01
859.67	-3.3123E-01
859.99	-2.4959E-01
860.30	-2.6810E-01
860.61	-2.5711E-01
860.92	-2.3546E-01
861.24	-3.4767E-01
861.55	-3.4089E-01
861.86	-3.6933E-01
862.17	-3.4915E-01
862.48	-3.7032E-01
862.80	-2.9757E-01
863.11	-3.4058E-01
863.42	-2.4253E-01
863.73	-2.3942E-01
864.04	-2.9195E-01
864.35	-3.0562E-01
864.67	-3.4385E-01
864.98	-3.4524E-01
865.29	-3.0962E-01
865.60	-3.2478E-01
865.91	-2.6666E-01
866.22	-3.0625E-01
866.53	-3.9279E-01
866.85	-2.8207E-01
867.16	-2.9701E-01
867.47	-3.8881E-01
867.78	-3.5835E-01
868.09	-3.9300E-01
868.40	-3.2453E-01
868.71	-3.1756E-01
869.02	-2.8870E-01
869.33	-3.8639E-01
869.65	-3.9455E-01
869.96	-4.9834E-01
870.27	-4.3354E-01
870.58	-3.8365E-01
870.89	-3.8182E-01
871.20	-3.4318E-01
871.51	-3.1497E-01
871.82	-3.3808E-01
872.13	-4.1849E-01
872.44	-3.6673E-01
872.75	-3.7652E-01
873.06	-3.7649E-01
873.37	-3.4151E-01
873.68	-4.1002E-01
873.99	-3.9486E-01
874.30	-3.6922E-01
874.61	-3.0999E-01
874.92	-3.5982E-01
875.23	-3.5827E-01
875.54	-4.0531E-01
875.85	-4.0397E-01
876.16	-4.2237E-01
876.47	-3.9930E-01
876.78	-3.7435E-01
877.09	-4.2636E-01
877.40	-3.5776E-01
877.71	-3.4573E-01
878.02	-4.2667E-01
878.33	-4.9571E-01
878.64	-3.8778E-01
878.94	-4.5419E-01
879.25	-4.3632E-01
879.56	-3.1911E-01
879.87	-4.7409E-01
880.18	-4.6174E-01
880.49	-4.4875E-01
880.80	-4.1522E-01
881.11	-4.5247E-01
881.42	-4.8818E-01
881.72	-4.3751E-01
882.03	-4.1368E-01
882.34	-4.1196E-01
882.65	-4.3200E-01
882.96	-4.5625E-01
883.27	-4.7661E-01
883.58	-4.3108E-01
883.88	-3.1555E-01
884.19	-4.1779E-01
884.50	-4.3423E-01
884.81	-3.6041E-01
885.12	-4.6251E-01
885.43	-3.7286E-01
885.73	-3.8825E-01
886.04	-5.4329E-01
886.35	-5.8595E-01
886.66	-4.8881E-01
886.97	-4.5542E-01
887.27	-5.2242E-01
887.58	-4.5064E-01
887.89	-4.5514E-01
888.20	-4.7527E-01
888.50	-3.7894E-01
888.81	-3.6657E-01
889.12	-4.1823E-01
889.43	-3.8235E-01
889.73	-5.2598E-01
890.04	-5.4726E-01
890.35	-5.1693E-01
890.66	-3.4054E-01
890.96	-4.7057E-01
891.27	-4.8091E-01
891.58	-4.4658E-01
891.88	-4.1571E-01
892.19	-4.3897E-01
892.50	-4.0907E-01
892.80	-5.6979E-01
893.11	-5.3538E-01
893.42	-4.3454E-01
893.72	-4.9112E-01
894.03	-5.2812E-01
894.34	-4.3499E-01
894.64	-4.1151E-01
894.95	-3.6562E-01
895.26	-4.0053E-01
895.56	-4.4744E-01
895.87	-4.2830E-01
896.18	-4.7076E-01
896.48	-4.2243E-01
896.79	-3.4220E-01
897.09	-4.4236E-01
897.40	-3.9482E-01
897.71	-3.7738E-01
898.01	-4.1906E-01
898.32	-4.1948E-01
898.62	-4.5011E-01
898.93	-3.6889E-01
899.24	-4.8922E-01
899.54	-5.6389E-01
899.85	-4.5133E-01
900.15	-3.8526E-01
900.46	-4.1634E-01
900.76	-4.2598E-01
901.07	-3.8480E-01
901.37	-4.1807E-01
901.68	-4.4645E-01
901.99	-5.2978E-01
902.29	-4.5776E-01
902.60	-4.3975E-01
902.90	-4.3677E-01
903.21	-3.7471E-01
903.51	-4.7319E-01
903.82	-4.2479E-01
904.12	-6.0234E-01
904.43	-5.7776E-01
904.73	-4.4658E-01
905.03	-4.3295E-01
905.34	-3.8988E-01
905.64	-4.0129E-01
905.95	-4.4771E-01
906.25	-4.8465E-01
906.56	-4.0476E-01
906.86	-4.5319E-01
907.17	-4.6920E-01
907.47	-4.0639E-01
907.78	-5.5469E-01
908.08	-4.8703E-01
908.38	-5.2080E-01
908.69	-5.5670E-01
908.99	-5.3490E-01
909.30	-5.0207E-01
909.60	-5.3822E-01
909.90	-4.4629E-01
910.21	-3.5334E-01
910.51	-4.9683E-01
910.81	-4.5473E-01
911.12	-4.0994E-01
911.42	-4.4870E-01
911.73	-3.9846E-01
912.03	-3.4108E-01
912.33	-5.9364E-01
912.64	-5.3454E-01
912.94	-4.1844E-01
913.24	-4.6741E-01
913.55	-4.6942E-01
913.85	-5.1315E-01
914.15	-5.0296E-01
914.45	-5.2617E-01
914.76	-4.7256E-01
915.06	-4.6431E-01
915.36	-4.6413E-01
915.67	-6.0664E-01
915.97	-5.1603E-01
916.27	-5.5032E-01
916.57	-3.3741E-01
916.88	-4.2653E-01
917.18	-5.5799E-01
917.48	-5.5191E-01
917.78	-6.1754E-01
918.09	-5.2528E-01
918.39	-5.1368E-01
918.69	-6.0996E-01
918.99	-6.5580E-01
919.30	-4.4875E-01
919.60	-4.8845E-01
919.90	-5.1136E-01
920.20	-4.9581E-01
920.50	-6.0412E-01
920.81	-5.9286E-01
921.11	-4.8702E-01
921.41	-3.2446E-01
921.71	-4.5208E-01
922.01	-7.1652E-01
922.32	-6.5856E-01
922.62	-6.1717E-01
922.92	-6.3234E-01
923.22	-5.8546E-01
923.52	-6.1965E-01
923.82	-5.5811E-01
924.12	-5.3021E-01
924.43	-6.0027E-01
924.73	-7.7686E-01
925.03	-7.4423E-01
925.33	-6.2004E-01
925.63	-5.4231E-01
925.93	-5.8492E-01
926.23	-7.0857E-01
926.53	-7.9051E-01
926.83	-6.3394E-01
927.13	-6.3255E-01
927.44	-4.5497E-01
927.74	-3.1067E-01
928.04	-5.7303E-01
928.34	-7.0266E-01
928.64	-7.6063E-01
928.94	-7.1785E-01
929.24	-7.5205E-01
929.54	-5.3687E-01
929.84	-7.2811E-01
930.14	-8.7982E-01
930.44	-7.3309E-01
930.74	-7.3930E-01
931.04	-6.2440E-01
931.34	-7.1579E-01
931.64	-6.2596E-01
931.94	-9.1668E-01
932.24	-9.2931E-01
932.54	-7.7057E-01
932.84	-9.4072E-01
933.14	-7.5175E-01
933.44	-6.4115E-01
933.74	-7.3087E-01
934.04	-6.6194E-01
934.34	-5.8028E-01
934.64	-6.1564E-01
934.94	-7.5656E-01
935.24	-8.2559E-01
935.54	-1.0220E00
935.83	-1.0380E00
936.13	-9.4566E-01
936.43	-7.9576E-01
936.73	-9.3049E-01
937.03	-7.5417E-01
937.33	-5.2728E-01
937.63	-9.9679E-01
937.93	-9.3574E-01
938.23	-9.1642E-01
938.53	-1.0619E00
938.82	-1.0768E00
939.12	-1.3952E00
939.42	-1.0008E00
939.72	-9.6863E-01
940.02	-8.6915E-01
940.32	-1.2011E00
940.62	-1.1670E00
940.91	-1.2834E00
941.21	-1.3440E00
941.51	-1.2602E00
941.81	-1.1755E00
942.11	-8.3831E-01
942.40	-1.0757E00
942.70	-1.2492E00
943.00	-1.5027E00
943.30	-1.3883E00
943.60	-1.5839E00
943.89	-1.4044E00
944.19	-1.2962E00
944.49	-1.2162E00
944.79	-1.4422E00
945.08	-1.5922E00
945.38	-1.5642E00
945.68	-1.2079E00
945.98	-1.2098E00
946.27	-1.5137E00
946.57	-1.1128E00
946.87	-1.3724E00
947.17	-1.5002E00
947.46	-1.5159E00
947.76	-1.1645E00
948.06	-9.1180E-01
948.35	-1.0652E00
948.65	-1.7125E00
948.95	-1.5113E00
949.24	-1.5766E00
949.54	-1.3810E00
949.84	-1.1786E00
950.13	-1.3976E00
950.43	-1.4221E00
950.73	-1.1355E00
951.02	-1.3365E00
951.32	-1.4025E00
951.62	-1.6471E00
951.91	-1.4713E00
952.21	-1.5276E00
952.51	-1.1834E00
952.80	-1.0009E00
953.10	-1.2387E00
953.39	-1.1336E00
953.69	-1.1291E00
953.99	-1.4212E00
954.28	-1.4296E00
954.58	-1.4421E00
954.87	-1.2615E00
955.17	-1.3552E00
955.46	-1.1788E00
955.76	-1.1546E00
956.06	-1.3022E00
956.35	-1.2802E00
956.65	-1.0282E00
956.94	-1.0804E00
957.24	-1.3205E00
957.53	-1.2019E00
957.83	-1.2988E00
958.12	-1.4267E00
958.42	-1.2632E00
958.71	-1.3010E00
959.01	-1.2319E00
959.30	-1.1556E00
959.60	-1.1842E00
959.89	-1.2460E00
960.19	-1.5746E00
960.48	-1.4301E00
960.78	-1.0494E00
961.07	-1.3226E00
961.37	-1.2355E00
961.66	-8.0226E-01
961.95	-1.1357E00
962.25	-1.1652E00
962.54	-1.6604E00
962.84	-1.1797E00
963.13	-1.2296E00
963.43	-1.0335E00
963.72	-1.5182E00
964.01	-1.1261E00
964.31	-1.0882E00
964.60	-1.1698E00
964.90	-1.3271E00
965.19	-1.1245E00
965.48	-1.4364E00
965.78	-1.2025E00
966.07	-1.2985E00
966.36	-1.1340E00
966.66	-1.1116E00
966.95	-1.1377E00
967.25	-1.5280E00
967.54	-1.5476E00
967.83	-1.8335E00
968.13	-1.6069E00
968.42	-1.6619E00
968.71	-1.5885E00
969.00	-1.4706E00
969.30	-1.8714E00
969.59	-1.5275E00
969.88	-1.3042E00
970.18	-1.5516E00
970.47	-1.5582E00
970.76	-1.7754E00
971.05	-1.3959E00
971.35	-1.3295E00
971.64	-1.2227E00
971.93	-1.5427E00
972.23	-1.9354E00
972.52	-1.7581E00
972.81	-1.4653E00
973.10	-1.4707E00
973.39	-1.6696E00
973.69	-1.6238E00
973.98	-1.8330E00
974.27	-2.1164E00
974.56	-1.8796E00
974.86	-1.8299E00
975.15	-2.1736E00
975.44	-1.6653E00
975.73	-1.7520E00
976.02	-2.2246E00
976.31	-1.8357E00
976.61	-1.3522E00
976.90	-1.6765E00
977.19	-1.7645E00
977.48	-2.1008E00
977.77	-1.6597E00
978.06	-1.4338E00
978.35	-1.3771E00
978.65	-1.5936E00
978.94	-1.5258E00
979.23	-1.7414E00
979.52	-2.0134E00
979.81	-1.8773E00
980.10	-1.8333E00
980.39	-1.8846E00
980.68	-1.9440E00
980.97	-1.8726E00
981.27	-2.0172E00
981.56	-2.2522E00
981.85	-1.6330E00
982.14	-1.8447E00
982.43	-2.2808E00
982.72	-2.1811E00
983.01	-1.7910E00
983.30	-1.7179E00
983.59	-2.3743E00
983.88	-2.1077E00
984.17	-1.7711E00
984.46	-1.8993E00
984.75	-2.1527E00
985.04	-1.9173E00
985.33	-2.0037E00
985.62	-2.4676E00
985.91	-2.7064E00
986.20	-1.9586E00
986.49	-2.3336E00
986.78	-2.2846E00
987.07	-3.3749E00
987.36	-2.5284E00
987.65	-2.4608E00
987.94	-2.0804E00
988.23	-1.8303E00
988.52	-2.2103E00
988.81	-2.1842E00
989.10	-2.4049E00
989.38	-2.6118E00
989.67	-2.4944E00
989.96	-3.3182E00
990.25	-2.6380E00
990.54	-2.5027E00
990.83	-2.9831E00
991.12	-3.1592E00
991.41	-2.9748E00
991.70	-2.8524E00
991.99	-2.8906E00
992.27	-2.5722E00
992.56	-3.1309E00
992.85	-2.8943E00
993.14	-3.1175E00
993.43	-3.4158E00
993.72	-3.3720E00
994.00	-2.7597E00
994.29	-2.7917E00
994.58	-3.0281E00
994.87	-3.2846E00
995.16	-3.0062E00
995.45	-3.2791E00
995.73	-3.2977E00
996.02	-2.2868E00
996.31	-1.9949E00
996.60	-2.6134E00
996.89	-3.2010E00
997.17	-3.4592E00
997.46	-3.2922E00
997.75	-2.6347E00
998.04	-2.8261E00
998.32	-2.8175E00
998.61	-2.9634E00
998.90	-3.6334E00
999.19	-3.2072E00
999.47	-3.4202E00
999.76	-3.7639E00
1000.05	-4.0488E00
1000.33	-4.0034E00
1000.62	-3.7225E00
1000.91	-4.2496E00
1001.19	-3.4847E00
1001.48	-3.3588E00
1001.77	-3.5088E00
1002.06	-3.9558E00
1002.34	-4.2249E00
1002.63	-4.2717E00
1002.92	-3.5639E00
1003.20	-3.8654E00
1003.49	-4.5097E00
1003.77	-4.6203E00
1004.06	-4.0356E00
1004.35	-3.8005E00
1004.63	-4.7444E00
1004.92	-4.5613E00
1005.21	-4.4894E00
1005.49	-4.9676E00
1005.78	-4.0181E00
1006.06	-3.7121E00
1006.35	-2.3308E00
1006.64	-4.0473E00
1006.92	-4.1714E00
1007.21	-4.9837E00
1007.49	-4.5215E00
1007.78	-4.6766E00
1008.06	-5.1335E00
1008.35	-4.8629E00
1008.64	-4.3696E00
1008.92	-4.9329E00
1009.21	-5.4074E00
1009.49	-5.5576E00
1009.78	-5.1216E00
1010.06	-6.2503E00
1010.35	-5.7791E00
1010.63	-5.1209E00
1010.92	-5.2376E00
1011.20	-4.9238E00
1011.49	-5.6701E00
1011.77	-5.4372E00
1012.06	-5.5097E00
1012.34	-5.3172E00
1012.63	-6.7168E00
1012.91	-5.5012E00
1013.20	-6.5988E00
1013.48	-5.6845E00
1013.76	-5.7990E00
1014.05	-6.0671E00
1014.33	-6.3845E00
1014.62	-7.3306E00
1014.90	-6.2201E00
1015.19	-5.0213E00
1015.47	-4.3435E00
1015.75	-7.4827E00
1016.04	-8.2296E00
1016.32	-6.1650E00
1016.61	-5.5430E00
1016.89	-9.1348E00
1017.17	-8.6923E00
1017.46	-7.6667E00
1017.74	-4.7714E00
1018.02	-6.5440E00
1018.31	-5.8103E00
1018.59	-6.0702E00
1018.87	-6.0123E00
1019.16	-6.0483E00
1019.44	-6.2692E00
1019.72	-6.4057E00
1020.01	-6.4585E00
1020.29	-8.5607E00
1020.57	-7.9350E00
1020.86	-9.0612E00
1021.14	-7.1755E00
1021.42	-7.7501E00
1021.71	-7.7054E00
1021.99	-8.6956E00
1022.27	-1.0410E01
1022.55	-7.2592E00
1022.84	-6.5500E00
1023.12	-9.0278E00
1023.40	-9.2764E00
1023.68	-8.9206E00
1023.97	-8.2710E00
1024.25	-8.1052E00
1024.53	-9.1596E00
1024.81	-9.1596E00
>>>>>End Processed Spectral Data<<<<<
